
1 | 6524 
2 | 6474 
3 | 6414 
4 | 6344 
5 | 6289 
6 | 6253 
7 | 6255 
8 | 6267 
9 | 6320 
10 | 6400 
11 | 6476 
12 | 6538 
13 | 6544 
14 | 6509 
15 | 6458 
16 | 6388 
17 | 6354 
18 | 6315 
19 | 6311 
20 | 6353 
21 | 6406 
22 | 6492 
23 | 6602 
24 | 6710 
25 | 6816 
26 | 6864 
27 | 6882 
28 | 6893 
29 | 6850 
30 | 6780 
31 | 6682 
32 | 6571 
33 | 6430 
34 | 6302 
35 | 6241 
36 | 6219 
37 | 6221 
38 | 6222 
39 | 6225 
40 | 6259 
41 | 6282 
42 | 6307 
43 | 6325 
44 | 6338 
45 | 6359 
46 | 6357 
47 | 6346 
48 | 6359 
49 | 6353 
50 | 6332 
51 | 6270 
52 | 6212 
53 | 6225 
54 | 6261 
55 | 6305 
56 | 6354 
57 | 6402 
58 | 6479 
59 | 6554 
60 | 6616 
61 | 6659 
62 | 6634 
63 | 6595 
64 | 6537 
65 | 6496 
66 | 6481 
67 | 6473 
68 | 6474 
69 | 6446 
70 | 6417 
71 | 6412 
72 | 6433 
73 | 6485 
74 | 6520 
75 | 6534 
76 | 6541 
77 | 6534 
78 | 6508 
79 | 6509 
80 | 6493 
81 | 6490 
82 | 6469 
83 | 6450 
84 | 6407 
85 | 6369 
86 | 6347 
87 | 6307 
88 | 6283 
89 | 6290 
90 | 6327 
91 | 6399 
92 | 6437 
93 | 6428 
94 | 6394 
95 | 6356 
96 | 6355 
97 | 6366 
98 | 6375 
99 | 6365 
100 | 6323 
101 | 6297 
102 | 6282 
103 | 6264 
104 | 6275 
105 | 6306 
106 | 6364 
107 | 6406 
108 | 6437 
109 | 6451 
110 | 6438 
111 | 6408 
112 | 6347 
113 | 6289 
114 | 6263 
115 | 6246 
116 | 6255 
117 | 6283 
118 | 6297 
119 | 6291 
120 | 6253 
121 | 6217 
122 | 6180 
123 | 6138 
124 | 6080 
125 | 5987 
126 | 5916 
127 | 5871 
128 | 5851 
129 | 5850 
130 | 5858 
131 | 5841 
132 | 5827 
133 | 5788 
134 | 5761 
135 | 5754 
136 | 5752 
137 | 5749 
138 | 5694 
139 | 5632 
140 | 5567 
141 | 5515 
142 | 5503 
143 | 5478 
144 | 5468 
145 | 5475 
146 | 5472 
147 | 5447 
148 | 5380 
149 | 5299 
150 | 5236 
151 | 5225 
152 | 5281 
153 | 5346 
154 | 5422 
155 | 5494 
156 | 5535 
157 | 5567 
158 | 5569 
159 | 5582 
160 | 5577 
161 | 5550 
162 | 5551 
163 | 5527 
164 | 5480 
165 | 5428 
166 | 5387 
167 | 5360 
168 | 5320 
169 | 5294 
170 | 5314 
171 | 5341 
172 | 5355 
173 | 5370 
174 | 5402 
175 | 5432 
176 | 5451 
177 | 5470 
178 | 5488 
179 | 5500 
180 | 5479 
181 | 5418 
182 | 5360 
183 | 5319 
184 | 5294 
185 | 5263 
186 | 5225 
187 | 5200 
188 | 5202 
189 | 5230 
190 | 5279 
191 | 5326 
192 | 5333 
193 | 5322 
194 | 5288 
195 | 5294 
196 | 5293 
197 | 5296 
198 | 5296 
199 | 5257 
200 | 5224 
201 | 5179 
202 | 5134 
203 | 5120 
204 | 5127 
205 | 5165 
206 | 5204 
207 | 5219 
208 | 5230 
209 | 5230 
210 | 5238 
211 | 5221 
212 | 5186 
213 | 5169 
214 | 5128 
215 | 5126 
216 | 5142 
217 | 5128 
218 | 5096 
219 | 5038 
220 | 4969 
221 | 4933 
222 | 4951 
223 | 5044 
224 | 5141 
225 | 5224 
226 | 5302 
227 | 5380 
228 | 5467 
229 | 5568 
230 | 5694 
231 | 5805 
232 | 5887 
233 | 5960 
234 | 6028 
235 | 6117 
236 | 6232 
237 | 6331 
238 | 6435 
239 | 6535 
240 | 6644 
241 | 6789 
242 | 6896 
243 | 7008 
244 | 7105 
245 | 7185 
246 | 7295 
247 | 7367 
248 | 7425 
249 | 7388 
250 | 7259 
251 | 7103 
252 | 6923 
253 | 6731 
254 | 6523 
255 | 6309 
256 | 6148 
257 | 5999 
258 | 5877 
259 | 5768 
260 | 5655 
261 | 5553 
262 | 5459 
263 | 5335 
264 | 5209 
265 | 5099 
266 | 5021 
267 | 4961 
268 | 4910 
269 | 4908 
270 | 4938 
271 | 4983 
272 | 5050 
273 | 5106 
274 | 5190 
275 | 5265 
276 | 5314 
277 | 5342 
278 | 5382 
279 | 5397 
280 | 5346 
281 | 5265 
282 | 5203 
283 | 5090 
284 | 5006 
285 | 4959 
286 | 4967 
287 | 4998 
288 | 5017 
289 | 5040 
290 | 5057 
291 | 5054 
292 | 5018 
293 | 4994 
294 | 4970 
295 | 4933 
296 | 4920 
297 | 4957 
298 | 5001 
299 | 5085 
300 | 5209 
301 | 5320 
302 | 5385 
303 | 5399 
304 | 5405 
305 | 5434 
306 | 5458 
307 | 5500 
308 | 5506 
309 | 5504 
310 | 5484 
311 | 5456 
312 | 5411 
313 | 5336 
314 | 5253 
315 | 5206 
316 | 5166 
317 | 5143 
318 | 5120 
319 | 5097 
320 | 5093 
321 | 5097 
322 | 5153 
323 | 5219 
324 | 5278 
325 | 5336 
326 | 5349 
327 | 5352 
328 | 5322 
329 | 5283 
330 | 5251 
331 | 5202 
332 | 5165 
333 | 5141 
334 | 5137 
335 | 5152 
336 | 5173 
337 | 5223 
338 | 5278 
339 | 5338 
340 | 5407 
341 | 5459 
342 | 5504 
343 | 5537 
344 | 5551 
345 | 5594 
346 | 5637 
347 | 5667 
348 | 5685 
349 | 5690 
350 | 5678 
351 | 5619 
352 | 5565 
353 | 5493 
354 | 5419 
355 | 5381 
356 | 5402 
357 | 5451 
358 | 5526 
359 | 5561 
360 | 5591 
361 | 5619 
362 | 5638 
363 | 5645 
364 | 5623 
365 | 5587 
366 | 5538 
367 | 5511 
368 | 5515 
369 | 5520 
370 | 5533 
371 | 5528 
372 | 5531 
373 | 5521 
374 | 5472 
375 | 5420 
376 | 5385 
377 | 5377 
378 | 5375 
379 | 5361 
380 | 5365 
381 | 5367 
382 | 5362 
383 | 5385 
384 | 5411 
385 | 5450 
386 | 5452 
387 | 5424 
388 | 5412 
389 | 5423 
390 | 5452 
391 | 5493 
392 | 5515 
393 | 5548 
394 | 5587 
395 | 5616 
396 | 5636 
397 | 5631 
398 | 5612 
399 | 5587 
400 | 5581 
401 | 5597 
402 | 5603 
403 | 5605 
404 | 5596 
405 | 5604 
406 | 5637 
407 | 5689 
408 | 5748 
409 | 5792 
410 | 5798 
411 | 5796 
412 | 5776 
413 | 5750 
414 | 5705 
415 | 5636 
416 | 5611 
417 | 5611 
418 | 5648 
419 | 5705 
420 | 5812 
421 | 5964 
422 | 6011 
423 | 5990 
424 | 5976 
425 | 5971 
426 | 6009 
427 | 6069 
428 | 6089 
429 | 6115 
430 | 6117 
431 | 6109 
432 | 6116 
433 | 6128 
434 | 6139 
435 | 6125 
436 | 6118 
437 | 6114 
438 | 6125 
439 | 6165 
440 | 6177 
441 | 6179 
442 | 6216 
443 | 6265 
444 | 6320 
445 | 6336 
446 | 6348 
447 | 6356 
448 | 6329 
449 | 6323 
450 | 6309 
451 | 6331 
452 | 6353 
453 | 6314 
454 | 6283 
455 | 6266 
456 | 6267 
457 | 6296 
458 | 6299 
459 | 6302 
460 | 6328 
461 | 6347 
462 | 6372 
463 | 6403 
464 | 6451 
465 | 6483 
466 | 6476 
467 | 6493 
468 | 6491 
469 | 6500 
470 | 6501 
471 | 6477 
472 | 6482 
473 | 6496 
474 | 6526 
475 | 6569 
476 | 6602 
477 | 6629 
478 | 6622 
479 | 6613 
480 | 6586 
481 | 6539 
482 | 6521 
483 | 6503 
484 | 6489 
485 | 6508 
486 | 6532 
487 | 6539 
488 | 6522 
489 | 6537 
490 | 6556 
491 | 6520 
492 | 6506 
493 | 6522 
494 | 6502 
495 | 6451 
496 | 6368 
497 | 6296 
498 | 6240 
499 | 6200 
500 | 6198 
501 | 6189 
502 | 6189 
503 | 6230 
504 | 6254 
505 | 6290 
506 | 6330 
507 | 6382 
508 | 6410 
509 | 6399 
510 | 6368 
511 | 6323 
512 | 6289 
513 | 6258 
514 | 6209 
515 | 6179 
516 | 6154 
517 | 6159 
518 | 6155 
519 | 6109 
520 | 6071 
521 | 6052 
522 | 6065 
523 | 6106 
524 | 6137 
525 | 6163 
526 | 6178 
527 | 6199 
528 | 6213 
529 | 6180 
530 | 6149 
531 | 6092 
532 | 6029 
533 | 5991 
534 | 5934 
535 | 5886 
536 | 5849 
537 | 5837 
538 | 5857 
539 | 5898 
540 | 5957 
541 | 6017 
542 | 6009 
543 | 5978 
544 | 5933 
545 | 5880 
546 | 5822 
547 | 5765 
548 | 5735 
549 | 5658 
550 | 5611 
551 | 5600 
552 | 5620 
553 | 5689 
554 | 5751 
555 | 5801 
556 | 5866 
557 | 5917 
558 | 5964 
559 | 5987 
560 | 5994 
561 | 6002 
562 | 5972 
563 | 5929 
564 | 5909 
565 | 5889 
566 | 5851 
567 | 5786 
568 | 5739 
569 | 5700 
570 | 5678 
571 | 5708 
572 | 5734 
573 | 5733 
574 | 5734 
575 | 5747 
576 | 5779 
577 | 5798 
578 | 5802 
579 | 5805 
580 | 5773 
581 | 5738 
582 | 5706 
583 | 5653 
584 | 5643 
585 | 5638 
586 | 5639 
587 | 5619 
588 | 5605 
589 | 5618 
590 | 5641 
591 | 5684 
592 | 5733 
593 | 5800 
594 | 5864 
595 | 5876 
596 | 5861 
597 | 5821 
598 | 5764 
599 | 5696 
600 | 5615 
601 | 5541 
602 | 5497 
603 | 5455 
604 | 5444 
605 | 5435 
606 | 5435 
607 | 5449 
608 | 5463 
609 | 5485 
610 | 5484 
611 | 5470 
612 | 5506 
613 | 5541 
614 | 5562 
615 | 5561 
616 | 5548 
617 | 5541 
618 | 5537 
619 | 5532 
620 | 5520 
621 | 5509 
622 | 5518 
623 | 5520 
624 | 5509 
625 | 5525 
626 | 5564 
627 | 5619 
628 | 5657 
629 | 5684 
630 | 5695 
631 | 5678 
632 | 5674 
633 | 5667 
634 | 5672 
635 | 5653 
636 | 5620 
637 | 5633 
638 | 5643 
639 | 5642 
640 | 5644 
641 | 5633 
642 | 5646 
643 | 5661 
644 | 5651 
645 | 5617 
646 | 5592 
647 | 5582 
648 | 5579 
649 | 5570 
650 | 5566 
651 | 5541 
652 | 5536 
653 | 5530 
654 | 5517 
655 | 5515 
656 | 5521 
657 | 5560 
658 | 5610 
659 | 5657 
660 | 5708 
661 | 5719 
662 | 5715 
663 | 5701 
664 | 5666 
665 | 5619 
666 | 5538 
667 | 5490 
668 | 5478 
669 | 5472 
670 | 5483 
671 | 5503 
672 | 5535 
673 | 5603 
674 | 5651 
675 | 5697 
676 | 5728 
677 | 5796 
678 | 5866 
679 | 5902 
680 | 5936 
681 | 5941 
682 | 5891 
683 | 5824 
684 | 5740 
685 | 5675 
686 | 5658 
687 | 5692 
688 | 5761 
689 | 5840 
690 | 5924 
691 | 5984 
692 | 6033 
693 | 6078 
694 | 6082 
695 | 6071 
696 | 6044 
697 | 6001 
698 | 5964 
699 | 5920 
700 | 5884 
701 | 5862 
702 | 5837 
703 | 5841 
704 | 5851 
705 | 5897 
706 | 5968 
707 | 6028 
708 | 6077 
709 | 6103 
710 | 6128 
711 | 6158 
712 | 6167 
713 | 6166 
714 | 6115 
715 | 6064 
716 | 6057 
717 | 6062 
718 | 6107 
719 | 6157 
720 | 6203 
721 | 6231 
722 | 6241 
723 | 6267 
724 | 6283 
725 | 6286 
726 | 6292 
727 | 6286 
728 | 6310 
729 | 6328 
730 | 6353 
731 | 6376 
732 | 6377 
733 | 6358 
734 | 6352 
735 | 6334 
736 | 6350 
737 | 6348 
738 | 6343 
739 | 6356 
740 | 6382 
741 | 6449 
742 | 6502 
743 | 6536 
744 | 6572 
745 | 6618 
746 | 6700 
747 | 6730 
748 | 6711 
749 | 6666 
750 | 6608 
751 | 6600 
752 | 6637 
753 | 6690 
754 | 6738 
755 | 6758 
756 | 6764 
757 | 6741 
758 | 6710 
759 | 6723 
760 | 6716 
761 | 6707 
762 | 6703 
763 | 6693 
764 | 6713 
765 | 6724 
766 | 6726 
767 | 6721 
768 | 6699 
769 | 6691 
770 | 6675 
771 | 6705 
772 | 6801 
773 | 6891 
774 | 6974 
775 | 7022 
776 | 7029 
777 | 7024 
778 | 6990 
779 | 6983 
780 | 6971 
781 | 6935 
782 | 6919 
783 | 6893 
784 | 6867 
785 | 6822 
786 | 6753 
787 | 6702 
788 | 6639 
789 | 6632 
790 | 6688 
791 | 6774 
792 | 6842 
793 | 6867 
794 | 6878 
795 | 6893 
796 | 6873 
797 | 6834 
798 | 6767 
799 | 6672 
800 | 6577 
801 | 6484 
802 | 6460 
803 | 6497 
804 | 6564 
805 | 6655 
806 | 6744 
807 | 6844 
808 | 6883 
809 | 6898 
810 | 6907 
811 | 6898 
812 | 6894 
813 | 6863 
814 | 6774 
815 | 6682 
816 | 6563 
817 | 6483 
818 | 6424 
819 | 6393 
820 | 6391 
821 | 6389 
822 | 6399 
823 | 6397 
824 | 6372 
825 | 6371 
826 | 6317 
827 | 6215 
828 | 6134 
829 | 6080 
830 | 6060 
831 | 6045 
832 | 6041 
833 | 6040 
834 | 6015 
835 | 6039 
836 | 6107 
837 | 6183 
838 | 6290 
839 | 6394 
840 | 6490 
841 | 6516 
842 | 6453 
843 | 6403 
844 | 6377 
845 | 6368 
846 | 6336 
847 | 6259 
848 | 6163 
849 | 6075 
850 | 6033 
851 | 6006 
852 | 5960 
853 | 5932 
854 | 5901 
855 | 5895 
856 | 5917 
857 | 5945 
858 | 5977 
859 | 5972 
860 | 5952 
861 | 5930 
862 | 5920 
863 | 5954 
864 | 5967 
865 | 5946 
866 | 5911 
867 | 5877 
868 | 5868 
869 | 5869 
870 | 5872 
871 | 5882 
872 | 5865 
873 | 5884 
874 | 5906 
875 | 5917 
876 | 5955 
877 | 5997 
878 | 6048 
879 | 6071 
880 | 6044 
881 | 6004 
882 | 5939 
883 | 5893 
884 | 5846 
885 | 5818 
886 | 5823 
887 | 5825 
888 | 5816 
889 | 5792 
890 | 5758 
891 | 5756 
892 | 5757 
893 | 5781 
894 | 5842 
895 | 5889 
896 | 5900 
897 | 5873 
898 | 5863 
899 | 5881 
900 | 5937 
901 | 6033 
902 | 6121 
903 | 6245 
904 | 6393 
905 | 6558 
906 | 6757 
907 | 6952 
908 | 7143 
909 | 7380 
910 | 7579 
911 | 7765 
912 | 7929 
913 | 8028 
914 | 8101 
915 | 8129 
916 | 8173 
917 | 8203 
918 | 8206 
919 | 8198 
920 | 8164 
921 | 8057 
922 | 7900 
923 | 7690 
924 | 7478 
925 | 7262 
926 | 7043 
927 | 6868 
928 | 6684 
929 | 6519 
930 | 6351 
931 | 6196 
932 | 6109 
933 | 6018 
934 | 5944 
935 | 5877 
936 | 5842 
937 | 5825 
938 | 5799 
939 | 5757 
940 | 5744 
941 | 5730 
942 | 5743 
943 | 5759 
944 | 5739 
945 | 5669 
946 | 5586 
947 | 5520 
948 | 5441 
949 | 5366 
950 | 5305 
951 | 5266 
952 | 5233 
953 | 5157 
954 | 5073 
955 | 4998 
956 | 4956 
957 | 4952 
958 | 4950 
959 | 4924 
960 | 4915 
961 | 4910 
962 | 4931 
963 | 4949 
964 | 4921 
965 | 4885 
966 | 4855 
967 | 4838 
968 | 4788 
969 | 4712 
970 | 4653 
971 | 4581 
972 | 4527 
973 | 4468 
974 | 4433 
975 | 4392 
976 | 4318 
977 | 4228 
978 | 4137 
979 | 4034 
980 | 3932 
981 | 3810 
982 | 3714 
983 | 3628 
984 | 3517 
985 | 3419 
986 | 3296 
987 | 3179 
988 | 3104 
989 | 3055 
990 | 3026 
991 | 2986 
992 | 2942 
993 | 2921 
994 | 2909 
995 | 2882 
996 | 2814 
997 | 2698 
998 | 2585 
999 | 2505 
1000 | 2467 
1001 | 2435 
1002 | 2398 
1003 | 2356 
1004 | 2316 
1005 | 2280 
1006 | 2247 
1007 | 2217 
1008 | 2222 
1009 | 2242 
1010 | 2243 
1011 | 2242 
1012 | 2225 
1013 | 2160 
1014 | 2077 
1015 | 1995 
1016 | 1906 
1017 | 1803 
1018 | 1707 
1019 | 1641 
1020 | 1595 
1021 | 1569 
1022 | 1552 
1023 | 1572 
1024 | 1603 
1025 | 1626 
1026 | 1637 
1027 | 1626 
1028 | 1608 
1029 | 1572 
1030 | 1565 
1031 | 1566 
1032 | 1564 
1033 | 1563 
1034 | 1605 
1035 | 1625 
1036 | 1602 
1037 | 1528 
1038 | 1448 
1039 | 1422 
1040 | 1440 
1041 | 1452 
1042 | 1445 
1043 | 1446 
1044 | 1462 
1045 | 1459 
1046 | 1442 
1047 | 1405 
1048 | 1356 
1049 | 1300 
1050 | 1277 
1051 | 1256 
1052 | 1257 
1053 | 1258 
1054 | 1251 
1055 | 1243 
1056 | 1215 
1057 | 1186 
1058 | 1159 
1059 | 1153 
1060 | 1148 
1061 | 1159 
1062 | 1164 
1063 | 1150 
1064 | 1143 
1065 | 1134 
1066 | 1117 
1067 | 1088 
1068 | 1091 
1069 | 1111 
1070 | 1160 
1071 | 1207 
1072 | 1234 
1073 | 1263 
1074 | 1296 
1075 | 1309 
1076 | 1287 
1077 | 1246 
1078 | 1186 
1079 | 1140 
1080 | 1098 
1081 | 1050 
1082 | 1004 
1083 | 957 
1084 | 951 
1085 | 964 
1086 | 981 
1087 | 1016 
1088 | 1046 
1089 | 1073 
1090 | 1079 
1091 | 1065 
1092 | 1059 
1093 | 1058 
1094 | 1070 
1095 | 1077 
1096 | 1056 
1097 | 1040 
1098 | 1001 
1099 | 955 
1100 | 909 
1101 | 929 
1102 | 980 
1103 | 1028 
1104 | 1055 
1105 | 1095 
1106 | 1132 
1107 | 1162 
1108 | 1183 
1109 | 1209 
1110 | 1240 
1111 | 1266 
1112 | 1288 
1113 | 1289 
1114 | 1279 
1115 | 1263 
1116 | 1243 
1117 | 1264 
1118 | 1319 
1119 | 1358 
1120 | 1364 
1121 | 1363 
1122 | 1372 
1123 | 1406 
1124 | 1453 
1125 | 1462 
1126 | 1458 
1127 | 1474 
1128 | 1476 
1129 | 1479 
1130 | 1481 
1131 | 1463 
1132 | 1422 
1133 | 1386 
1134 | 1375 
1135 | 1378 
1136 | 1386 
1137 | 1393 
1138 | 1398 
1139 | 1403 
1140 | 1414 
1141 | 1445 
1142 | 1502 
1143 | 1529 
1144 | 1530 
1145 | 1525 
1146 | 1509 
1147 | 1481 
1148 | 1438 
1149 | 1386 
1150 | 1369 
1151 | 1384 
1152 | 1394 
1153 | 1400 
1154 | 1419 
1155 | 1442 
1156 | 1448 
1157 | 1443 
1158 | 1454 
1159 | 1481 
1160 | 1508 
1161 | 1532 
1162 | 1565 
1163 | 1584 
1164 | 1629 
1165 | 1660 
1166 | 1672 
1167 | 1678 
1168 | 1655 
1169 | 1637 
1170 | 1615 
1171 | 1595 
1172 | 1575 
1173 | 1580 
1174 | 1583 
1175 | 1579 
1176 | 1570 
1177 | 1539 
1178 | 1501 
1179 | 1463 
1180 | 1433 
1181 | 1389 
1182 | 1330 
1183 | 1280 
1184 | 1267 
1185 | 1266 
1186 | 1257 
1187 | 1238 
1188 | 1215 
1189 | 1214 
1190 | 1220 
1191 | 1251 
1192 | 1260 
1193 | 1267 
1194 | 1286 
1195 | 1301 
1196 | 1294 
1197 | 1288 
1198 | 1288 
1199 | 1292 
1200 | 1276 
1201 | 1243 
1202 | 1215 
1203 | 1199 
1204 | 1191 
1205 | 1180 
1206 | 1205 
1207 | 1239 
1208 | 1259 
1209 | 1248 
1210 | 1200 
1211 | 1136 
1212 | 1085 
1213 | 1061 
1214 | 1041 
1215 | 1032 
1216 | 1025 
1217 | 988 
1218 | 944 
1219 | 918 
1220 | 894 
1221 | 887 
1222 | 958 
1223 | 1017 
1224 | 1026 
1225 | 1020 
1226 | 1017 
1227 | 1010 
1228 | 992 
1229 | 954 
1230 | 923 
1231 | 928 
1232 | 949 
1233 | 953 
1234 | 950 
1235 | 950 
1236 | 953 
1237 | 935 
1238 | 892 
1239 | 839 
1240 | 775 
1241 | 706 
1242 | 659 
1243 | 614 
1244 | 554 
1245 | 507 
1246 | 487 
1247 | 485 
1248 | 455 
1249 | 413 
1250 | 332 
1251 | 219 
1252 | 130 
1253 | 90 
1254 | 112 
1255 | 181 
1256 | 276 
1257 | 346 
1258 | 388 
1259 | 374 
1260 | 340 
1261 | 277 
1262 | 230 
1263 | 208 
1264 | 176 
1265 | 147 
1266 | 95 
1267 | 57 
1268 | 41 
1269 | 25 
1270 | -29 
1271 | -85 
1272 | -86 
1273 | -72 
1274 | -25 
1275 | 34 
1276 | 83 
1277 | 82 
1278 | 37 
1279 | -25 
1280 | -96 
1281 | -152 
1282 | -190 
1283 | -225 
1284 | -257 
1285 | -286 
1286 | -325 
1287 | -351 
1288 | -370 
1289 | -338 
1290 | -288 
1291 | -242 
1292 | -214 
1293 | -184 
1294 | -190 
1295 | -200 
1296 | -233 
1297 | -292 
1298 | -341 
1299 | -377 
1300 | -419 
1301 | -460 
1302 | -489 
1303 | -519 
1304 | -533 
1305 | -535 
1306 | -497 
1307 | -438 
1308 | -397 
1309 | -366 
1310 | -356 
1311 | -363 
1312 | -398 
1313 | -451 
1314 | -518 
1315 | -594 
1316 | -612 
1317 | -578 
1318 | -527 
1319 | -483 
1320 | -468 
1321 | -479 
1322 | -474 
1323 | -474 
1324 | -474 
1325 | -472 
1326 | -479 
1327 | -504 
1328 | -500 
1329 | -489 
1330 | -487 
1331 | -508 
1332 | -544 
1333 | -611 
1334 | -683 
1335 | -772 
1336 | -841 
1337 | -873 
1338 | -868 
1339 | -833 
1340 | -775 
1341 | -729 
1342 | -678 
1343 | -611 
1344 | -553 
1345 | -505 
1346 | -483 
1347 | -497 
1348 | -518 
1349 | -535 
1350 | -541 
1351 | -571 
1352 | -624 
1353 | -670 
1354 | -686 
1355 | -685 
1356 | -665 
1357 | -630 
1358 | -604 
1359 | -603 
1360 | -592 
1361 | -561 
1362 | -560 
1363 | -593 
1364 | -642 
1365 | -682 
1366 | -713 
1367 | -691 
1368 | -646 
1369 | -612 
1370 | -591 
1371 | -597 
1372 | -621 
1373 | -610 
1374 | -575 
1375 | -509 
1376 | -463 
1377 | -441 
1378 | -416 
1379 | -425 
1380 | -447 
1381 | -478 
1382 | -521 
1383 | -535 
1384 | -476 
1385 | -386 
1386 | -305 
1387 | -247 
1388 | -205 
1389 | -170 
1390 | -120 
1391 | -98 
1392 | -99 
1393 | -132 
1394 | -171 
1395 | -211 
1396 | -263 
1397 | -337 
1398 | -391 
1399 | -411 
1400 | -417 
1401 | -394 
1402 | -348 
1403 | -303 
1404 | -235 
1405 | -168 
1406 | -121 
1407 | -53 
1408 | 16 
1409 | 55 
1410 | 56 
1411 | 46 
1412 | 50 
1413 | 55 
1414 | 58 
1415 | 67 
1416 | 29 
1417 | -31 
1418 | -74 
1419 | -112 
1420 | -136 
1421 | -144 
1422 | -134 
1423 | -89 
1424 | -51 
1425 | -22 
1426 | 6 
1427 | 52 
1428 | 84 
1429 | 110 
1430 | 137 
1431 | 126 
1432 | 80 
1433 | 35 
1434 | 47 
1435 | 86 
1436 | 161 
1437 | 234 
1438 | 301 
1439 | 382 
1440 | 434 
1441 | 468 
1442 | 501 
1443 | 578 
1444 | 643 
1445 | 660 
1446 | 645 
1447 | 657 
1448 | 688 
1449 | 699 
1450 | 682 
1451 | 666 
1452 | 657 
1453 | 653 
1454 | 644 
1455 | 638 
1456 | 654 
1457 | 673 
1458 | 689 
1459 | 712 
1460 | 738 
1461 | 801 
1462 | 870 
1463 | 926 
1464 | 955 
1465 | 964 
1466 | 965 
1467 | 957 
1468 | 952 
1469 | 935 
1470 | 928 
1471 | 910 
1472 | 931 
1473 | 999 
1474 | 1065 
1475 | 1109 
1476 | 1173 
1477 | 1239 
1478 | 1294 
1479 | 1370 
1480 | 1449 
1481 | 1528 
1482 | 1571 
1483 | 1571 
1484 | 1534 
1485 | 1507 
1486 | 1497 
1487 | 1518 
1488 | 1568 
1489 | 1634 
1490 | 1701 
1491 | 1748 
1492 | 1748 
1493 | 1730 
1494 | 1710 
1495 | 1690 
1496 | 1675 
1497 | 1639 
1498 | 1604 
1499 | 1583 
1500 | 1578 
1501 | 1584 
1502 | 1577 
1503 | 1576 
1504 | 1570 
1505 | 1589 
1506 | 1622 
1507 | 1656 
1508 | 1703 
1509 | 1744 
1510 | 1749 
1511 | 1741 
1512 | 1749 
1513 | 1774 
1514 | 1822 
1515 | 1855 
1516 | 1882 
1517 | 1872 
1518 | 1844 
1519 | 1827 
1520 | 1772 
1521 | 1721 
1522 | 1674 
1523 | 1636 
1524 | 1602 
1525 | 1600 
1526 | 1610 
1527 | 1631 
1528 | 1662 
1529 | 1695 
1530 | 1717 
1531 | 1732 
1532 | 1767 
1533 | 1808 
1534 | 1842 
1535 | 1855 
1536 | 1873 
1537 | 1875 
1538 | 1886 
1539 | 1917 
1540 | 1946 
1541 | 1987 
1542 | 1999 
1543 | 1991 
1544 | 2000 
1545 | 2033 
1546 | 2087 
1547 | 2125 
1548 | 2141 
1549 | 2145 
1550 | 2132 
1551 | 2133 
1552 | 2137 
1553 | 2168 
1554 | 2216 
1555 | 2292 
1556 | 2383 
1557 | 2450 
1558 | 2503 
1559 | 2567 
1560 | 2610 
1561 | 2658 
1562 | 2693 
1563 | 2703 
1564 | 2699 
1565 | 2678 
1566 | 2663 
1567 | 2663 
1568 | 2666 
1569 | 2679 
1570 | 2724 
1571 | 2785 
1572 | 2874 
1573 | 2972 
1574 | 3067 
1575 | 3116 
1576 | 3148 
1577 | 3185 
1578 | 3244 
1579 | 3325 
1580 | 3392 
1581 | 3418 
1582 | 3437 
1583 | 3485 
1584 | 3584 
1585 | 3690 
1586 | 3804 
1587 | 3959 
1588 | 4149 
1589 | 4363 
1590 | 4573 
1591 | 4740 
1592 | 4908 
1593 | 5111 
1594 | 5334 
1595 | 5580 
1596 | 5806 
1597 | 6036 
1598 | 6223 
1599 | 6355 
1600 | 6468 
1601 | 6484 
1602 | 6451 
1603 | 6360 
1604 | 6242 
1605 | 6083 
1606 | 5892 
1607 | 5700 
1608 | 5503 
1609 | 5306 
1610 | 5146 
1611 | 4997 
1612 | 4882 
1613 | 4759 
1614 | 4618 
1615 | 4485 
1616 | 4377 
1617 | 4316 
1618 | 4285 
1619 | 4283 
1620 | 4299 
1621 | 4309 
1622 | 4333 
1623 | 4363 
1624 | 4425 
1625 | 4528 
1626 | 4623 
1627 | 4733 
1628 | 4850 
1629 | 4931 
1630 | 4995 
1631 | 5076 
1632 | 5141 
1633 | 5180 
1634 | 5166 
1635 | 5120 
1636 | 5044 
1637 | 4961 
1638 | 4920 
1639 | 4891 
1640 | 4903 
1641 | 4931 
1642 | 4968 
1643 | 5010 
1644 | 5039 
1645 | 5058 
1646 | 5071 
1647 | 5077 
1648 | 5110 
1649 | 5129 
1650 | 5164 
1651 | 5225 
1652 | 5309 
1653 | 5426 
1654 | 5527 
1655 | 5566 
1656 | 5566 
1657 | 5527 
1658 | 5516 
1659 | 5550 
1660 | 5606 
1661 | 5636 
1662 | 5617 
1663 | 5592 
1664 | 5575 
1665 | 5561 
1666 | 5548 
1667 | 5523 
1668 | 5514 
1669 | 5523 
1670 | 5553 
1671 | 5619 
1672 | 5690 
1673 | 5767 
1674 | 5824 
1675 | 5848 
1676 | 5858 
1677 | 5850 
1678 | 5866 
1679 | 5909 
1680 | 5929 
1681 | 5926 
1682 | 5890 
1683 | 5840 
1684 | 5817 
1685 | 5808 
1686 | 5841 
1687 | 5880 
1688 | 5934 
1689 | 6011 
1690 | 6091 
1691 | 6188 
1692 | 6271 
1693 | 6339 
1694 | 6393 
1695 | 6412 
1696 | 6450 
1697 | 6445 
1698 | 6368 
1699 | 6241 
1700 | 6157 
1701 | 6138 
1702 | 6140 
1703 | 6138 
1704 | 6150 
1705 | 6177 
1706 | 6227 
1707 | 6288 
1708 | 6334 
1709 | 6393 
1710 | 6407 
1711 | 6396 
1712 | 6383 
1713 | 6361 
1714 | 6335 
1715 | 6303 
1716 | 6279 
1717 | 6286 
1718 | 6291 
1719 | 6284 
1720 | 6281 
1721 | 6308 
1722 | 6362 
1723 | 6402 
1724 | 6441 
1725 | 6438 
1726 | 6424 
1727 | 6415 
1728 | 6367 
1729 | 6331 
1730 | 6297 
1731 | 6270 
1732 | 6251 
1733 | 6220 
1734 | 6230 
1735 | 6296 
1736 | 6352 
1737 | 6415 
1738 | 6451 
1739 | 6497 
1740 | 6563 
1741 | 6608 
1742 | 6629 
1743 | 6651 
1744 | 6655 
1745 | 6666 
1746 | 6671 
1747 | 6669 
1748 | 6650 
1749 | 6633 
1750 | 6613 
1751 | 6584 
1752 | 6608 
1753 | 6645 
1754 | 6675 
1755 | 6678 
1756 | 6657 
1757 | 6660 
1758 | 6657 
1759 | 6626 
1760 | 6620 
1761 | 6615 
1762 | 6637 
1763 | 6649 
1764 | 6644 
1765 | 6638 
1766 | 6607 
1767 | 6584 
1768 | 6573 
1769 | 6565 
1770 | 6566 
1771 | 6575 
1772 | 6638 
1773 | 6754 
1774 | 6830 
1775 | 6881 
1776 | 6932 
1777 | 7016 
1778 | 7074 
1779 | 7065 
1780 | 7036 
1781 | 6979 
1782 | 6920 
1783 | 6881 
1784 | 6853 
1785 | 6852 
1786 | 6857 
1787 | 6875 
1788 | 6904 
1789 | 6904 
1790 | 6896 
1791 | 6904 
1792 | 6923 
1793 | 6932 
1794 | 6942 
1795 | 6961 
1796 | 6972 
1797 | 6958 
1798 | 6939 
1799 | 6901 
1800 | 6894 
1801 | 6905 
1802 | 6926 
1803 | 6953 
1804 | 6955 
1805 | 6959 
1806 | 6969 
1807 | 6971 
1808 | 7009 
1809 | 7051 
1810 | 7087 
1811 | 7141 
1812 | 7190 
1813 | 7227 
1814 | 7202 
1815 | 7161 
1816 | 7146 
1817 | 7115 
1818 | 7089 
1819 | 7075 
1820 | 7082 
1821 | 7125 
1822 | 7149 
1823 | 7193 
1824 | 7239 
1825 | 7264 
1826 | 7287 
1827 | 7298 
1828 | 7317 
1829 | 7303 
1830 | 7237 
1831 | 7159 
1832 | 7070 
1833 | 7020 
1834 | 6998 
1835 | 7000 
1836 | 7033 
1837 | 7052 
1838 | 7090 
1839 | 7157 
1840 | 7214 
1841 | 7262 
1842 | 7250 
1843 | 7199 
1844 | 7154 
1845 | 7119 
1846 | 7121 
1847 | 7113 
1848 | 7079 
1849 | 7085 
1850 | 7096 
1851 | 7115 
1852 | 7112 
1853 | 7098 
1854 | 7108 
1855 | 7128 
1856 | 7144 
1857 | 7147 
1858 | 7141 
1859 | 7131 
1860 | 7095 
1861 | 7079 
1862 | 7060 
1863 | 7031 
1864 | 7003 
1865 | 6965 
1866 | 6949 
1867 | 6944 
1868 | 6912 
1869 | 6886 
1870 | 6859 
1871 | 6838 
1872 | 6816 
1873 | 6795 
1874 | 6812 
1875 | 6808 
1876 | 6791 
1877 | 6777 
1878 | 6758 
1879 | 6725 
1880 | 6683 
1881 | 6639 
1882 | 6635 
1883 | 6664 
1884 | 6706 
1885 | 6720 
1886 | 6711 
1887 | 6688 
1888 | 6647 
1889 | 6632 
1890 | 6612 
1891 | 6586 
1892 | 6556 
1893 | 6500 
1894 | 6462 
1895 | 6439 
1896 | 6416 
1897 | 6395 
1898 | 6348 
1899 | 6282 
1900 | 6225 
1901 | 6167 
1902 | 6134 
1903 | 6105 
1904 | 6096 
1905 | 6135 
1906 | 6176 
1907 | 6232 
1908 | 6265 
1909 | 6276 
1910 | 6276 
1911 | 6239 
1912 | 6207 
1913 | 6155 
1914 | 6094 
1915 | 6047 
1916 | 6014 
1917 | 5991 
1918 | 5984 
1919 | 5992 
1920 | 6045 
1921 | 6133 
1922 | 6247 
1923 | 6343 
1924 | 6413 
1925 | 6456 
1926 | 6427 
1927 | 6395 
1928 | 6401 
1929 | 6446 
1930 | 6490 
1931 | 6469 
1932 | 6412 
1933 | 6373 
1934 | 6330 
1935 | 6278 
1936 | 6236 
1937 | 6243 
1938 | 6277 
1939 | 6311 
1940 | 6337 
1941 | 6346 
1942 | 6373 
1943 | 6380 
1944 | 6358 
1945 | 6348 
1946 | 6327 
1947 | 6294 
1948 | 6266 
1949 | 6209 
1950 | 6164 
1951 | 6112 
1952 | 6084 
1953 | 6119 
1954 | 6141 
1955 | 6176 
1956 | 6204 
1957 | 6247 
1958 | 6282 
1959 | 6297 
1960 | 6299 
1961 | 6307 
1962 | 6317 
1963 | 6324 
1964 | 6306 
1965 | 6289 
1966 | 6252 
1967 | 6178 
1968 | 6113 
1969 | 6081 
1970 | 6090 
1971 | 6138 
1972 | 6183 
1973 | 6244 
1974 | 6280 
1975 | 6296 
1976 | 6294 
1977 | 6272 
1978 | 6240 
1979 | 6227 
1980 | 6212 
1981 | 6217 
1982 | 6189 
1983 | 6143 
1984 | 6066 
1985 | 5969 
1986 | 5916 
1987 | 5912 
1988 | 5981 
1989 | 6077 
1990 | 6170 
1991 | 6241 
1992 | 6270 
1993 | 6291 
1994 | 6310 
1995 | 6324 
1996 | 6344 
1997 | 6327 
1998 | 6288 
1999 | 6236 
2000 | 6180 
2001 | 6176 
2002 | 6169 
2003 | 6142 
2004 | 6129 
2005 | 6134 
2006 | 6171 
2007 | 6207 
2008 | 6252 
2009 | 6326 
2010 | 6410 
2011 | 6508 
2012 | 6582 
2013 | 6612 
2014 | 6598 
2015 | 6556 
2016 | 6528 
2017 | 6475 
2018 | 6409 
2019 | 6383 
2020 | 6379 
2021 | 6421 
2022 | 6491 
2023 | 6557 
2024 | 6622 
2025 | 6655 
2026 | 6690 
2027 | 6758 
2028 | 6810 
2029 | 6845 
2030 | 6846 
2031 | 6845 
2032 | 6862 
2033 | 6851 
2034 | 6824 
2035 | 6777 
2036 | 6753 
2037 | 6789 
2038 | 6837 
2039 | 6911 
2040 | 6957 
2041 | 7014 
2042 | 7059 
2043 | 7075 
2044 | 7096 
2045 | 7122 
2046 | 7161 
2047 | 7165 
2048 | 7124 
2049 | 7107 
2050 | 7142 
2051 | 7191 
2052 | 7253 
2053 | 7292 
2054 | 7329 
2055 | 7345 
2056 | 7337 
2057 | 7358 
2058 | 7359 
2059 | 7365 
2060 | 7360 
2061 | 7321 
2062 | 7302 
2063 | 7280 
2064 | 7240 
2065 | 7226 
2066 | 7218 
2067 | 7221 
2068 | 7188 
2069 | 7132 
2070 | 7090 
2071 | 7087 
2072 | 7131 
2073 | 7161 
2074 | 7167 
2075 | 7163 
2076 | 7156 
2077 | 7188 
2078 | 7228 
2079 | 7247 
2080 | 7253 
2081 | 7206 
2082 | 7149 
2083 | 7094 
2084 | 7055 
2085 | 7024 
2086 | 7007 
2087 | 7023 
2088 | 7073 
2089 | 7124 
2090 | 7164 
2091 | 7189 
2092 | 7190 
2093 | 7178 
2094 | 7143 
2095 | 7135 
2096 | 7113 
2097 | 7074 
2098 | 7027 
2099 | 6970 
2100 | 6955 
2101 | 6948 
2102 | 6942 
2103 | 6971 
2104 | 6988 
2105 | 7012 
2106 | 7029 
2107 | 7039 
2108 | 7053 
2109 | 7048 
2110 | 7028 
2111 | 6976 
2112 | 6929 
2113 | 6907 
2114 | 6885 
2115 | 6886 
2116 | 6875 
2117 | 6873 
2118 | 6921 
2119 | 6962 
2120 | 6978 
2121 | 6971 
2122 | 6943 
2123 | 6937 
2124 | 6928 
2125 | 6905 
2126 | 6890 
2127 | 6881 
2128 | 6920 
2129 | 6937 
2130 | 6909 
2131 | 6895 
2132 | 6868 
2133 | 6868 
2134 | 6881 
2135 | 6903 
2136 | 6937 
2137 | 6934 
2138 | 6965 
2139 | 7057 
2140 | 7174 
2141 | 7286 
2142 | 7350 
2143 | 7381 
2144 | 7377 
2145 | 7332 
2146 | 7280 
2147 | 7174 
2148 | 7052 
2149 | 6943 
2150 | 6842 
2151 | 6774 
2152 | 6708 
2153 | 6676 
2154 | 6664 
2155 | 6662 
2156 | 6696 
2157 | 6710 
2158 | 6755 
2159 | 6825 
2160 | 6883 
2161 | 6947 
2162 | 6968 
2163 | 6965 
2164 | 6979 
2165 | 6965 
2166 | 6941 
2167 | 6876 
2168 | 6809 
2169 | 6773 
2170 | 6753 
2171 | 6777 
2172 | 6832 
2173 | 6852 
2174 | 6870 
2175 | 6877 
2176 | 6894 
2177 | 6900 
2178 | 6891 
2179 | 6882 
2180 | 6874 
2181 | 6866 
2182 | 6858 
2183 | 6844 
2184 | 6867 
2185 | 6894 
2186 | 6928 
2187 | 6953 
2188 | 6949 
2189 | 6973 
2190 | 6986 
2191 | 7016 
2192 | 7048 
2193 | 7026 
2194 | 6992 
2195 | 6948 
2196 | 6904 
2197 | 6867 
2198 | 6800 
2199 | 6731 
2200 | 6694 
2201 | 6688 
2202 | 6709 
2203 | 6714 
2204 | 6738 
2205 | 6791 
2206 | 6888 
2207 | 7007 
2208 | 7086 
2209 | 7149 
2210 | 7165 
2211 | 7128 
2212 | 7091 
2213 | 7053 
2214 | 7014 
2215 | 6975 
2216 | 6903 
2217 | 6870 
2218 | 6833 
2219 | 6798 
2220 | 6772 
2221 | 6751 
2222 | 6737 
2223 | 6716 
2224 | 6694 
2225 | 6693 
2226 | 6703 
2227 | 6759 
2228 | 6793 
2229 | 6793 
2230 | 6773 
2231 | 6752 
2232 | 6752 
2233 | 6767 
2234 | 6781 
2235 | 6816 
2236 | 6831 
2237 | 6852 
2238 | 6888 
2239 | 6890 
2240 | 6888 
2241 | 6902 
2242 | 6909 
2243 | 6921 
2244 | 6948 
2245 | 7002 
2246 | 7021 
2247 | 6984 
2248 | 6906 
2249 | 6828 
2250 | 6787 
2251 | 6753 
2252 | 6733 
2253 | 6743 
2254 | 6743 
2255 | 6774 
2256 | 6797 
2257 | 6820 
2258 | 6861 
2259 | 6884 
2260 | 6892 
2261 | 6877 
2262 | 6882 
2263 | 6893 
2264 | 6858 
2265 | 6809 
2266 | 6785 
2267 | 6771 
2268 | 6768 
2269 | 6749 
2270 | 6717 
2271 | 6705 
2272 | 6712 
2273 | 6738 
2274 | 6769 
2275 | 6817 
2276 | 6872 
2277 | 6911 
2278 | 6977 
2279 | 7017 
2280 | 7044 
2281 | 7047 
2282 | 7049 
2283 | 7092 
2284 | 7134 
2285 | 7170 
2286 | 7199 
2287 | 7213 
2288 | 7258 
2289 | 7327 
2290 | 7425 
2291 | 7561 
2292 | 7689 
2293 | 7844 
2294 | 7993 
2295 | 8127 
2296 | 8268 
2297 | 8404 
2298 | 8537 
2299 | 8627 
2300 | 8695 
2301 | 8786 
2302 | 8827 
2303 | 8839 
2304 | 8857 
2305 | 8890 
2306 | 8946 
2307 | 8955 
2308 | 8940 
2309 | 8898 
2310 | 8796 
2311 | 8637 
2312 | 8439 
2313 | 8250 
2314 | 8065 
2315 | 7872 
2316 | 7705 
2317 | 7540 
2318 | 7405 
2319 | 7297 
2320 | 7192 
2321 | 7136 
2322 | 7106 
2323 | 7104 
2324 | 7126 
2325 | 7129 
2326 | 7150 
2327 | 7168 
2328 | 7174 
2329 | 7193 
2330 | 7189 
2331 | 7176 
2332 | 7151 
2333 | 7128 
2334 | 7155 
2335 | 7188 
2336 | 7215 
2337 | 7225 
2338 | 7240 
2339 | 7289 
2340 | 7332 
2341 | 7376 
2342 | 7394 
2343 | 7377 
2344 | 7336 
2345 | 7269 
2346 | 7208 
2347 | 7158 
2348 | 7065 
2349 | 6975 
2350 | 6904 
2351 | 6890 
2352 | 6923 
2353 | 6965 
2354 | 7021 
2355 | 7098 
2356 | 7192 
2357 | 7282 
2358 | 7317 
2359 | 7325 
2360 | 7325 
2361 | 7309 
2362 | 7273 
2363 | 7212 
2364 | 7158 
2365 | 7114 
2366 | 7062 
2367 | 7046 
2368 | 7020 
2369 | 7024 
2370 | 7035 
2371 | 7048 
2372 | 7090 
2373 | 7137 
2374 | 7197 
2375 | 7257 
2376 | 7301 
2377 | 7345 
2378 | 7348 
2379 | 7328 
2380 | 7319 
2381 | 7288 
2382 | 7266 
2383 | 7249 
2384 | 7238 
2385 | 7241 
2386 | 7214 
2387 | 7210 
2388 | 7209 
2389 | 7230 
2390 | 7271 
2391 | 7294 
2392 | 7330 
2393 | 7360 
2394 | 7382 
2395 | 7397 
2396 | 7382 
2397 | 7352 
2398 | 7285 
2399 | 7222 
2400 | 7211 
2401 | 7240 
2402 | 7315 
2403 | 7388 
2404 | 7432 
2405 | 7490 
2406 | 7547 
2407 | 7614 
2408 | 7663 
2409 | 7671 
2410 | 7691 
2411 | 7714 
2412 | 7725 
2413 | 7703 
2414 | 7616 
2415 | 7523 
2416 | 7431 
2417 | 7379 
2418 | 7363 
2419 | 7356 
2420 | 7368 
2421 | 7395 
2422 | 7414 
2423 | 7446 
2424 | 7485 
2425 | 7548 
2426 | 7582 
2427 | 7586 
2428 | 7605 
2429 | 7606 
2430 | 7582 
2431 | 7526 
2432 | 7480 
2433 | 7480 
2434 | 7469 
2435 | 7460 
2436 | 7462 
2437 | 7465 
2438 | 7506 
2439 | 7556 
2440 | 7602 
2441 | 7649 
2442 | 7678 
2443 | 7707 
2444 | 7703 
2445 | 7714 
2446 | 7699 
2447 | 7622 
2448 | 7523 
2449 | 7415 
2450 | 7344 
2451 | 7357 
2452 | 7386 
2453 | 7414 
2454 | 7428 
2455 | 7462 
2456 | 7520 
2457 | 7572 
2458 | 7640 
2459 | 7694 
2460 | 7707 
2461 | 7736 
2462 | 7733 
2463 | 7706 
2464 | 7661 
2465 | 7612 
2466 | 7614 
2467 | 7652 
2468 | 7686 
2469 | 7668 
2470 | 7621 
2471 | 7581 
2472 | 7539 
2473 | 7501 
2474 | 7474 
2475 | 7448 
2476 | 7442 
2477 | 7440 
2478 | 7450 
2479 | 7489 
2480 | 7498 
2481 | 7497 
2482 | 7478 
2483 | 7466 
2484 | 7492 
2485 | 7496 
2486 | 7504 
2487 | 7501 
2488 | 7523 
2489 | 7572 
2490 | 7612 
2491 | 7664 
2492 | 7688 
2493 | 7673 
2494 | 7656 
2495 | 7600 
2496 | 7547 
2497 | 7510 
2498 | 7467 
2499 | 7457 
2500 | 7441 
2501 | 7448 
2502 | 7492 
2503 | 7550 
2504 | 7587 
2505 | 7572 
2506 | 7565 
2507 | 7565 
2508 | 7562 
2509 | 7564 
2510 | 7577 
2511 | 7591 
2512 | 7609 
2513 | 7626 
2514 | 7642 
2515 | 7609 
2516 | 7559 
2517 | 7557 
2518 | 7534 
2519 | 7515 
2520 | 7482 
2521 | 7467 
2522 | 7494 
2523 | 7530 
2524 | 7583 
2525 | 7630 
2526 | 7651 
2527 | 7671 
2528 | 7683 
2529 | 7700 
2530 | 7721 
2531 | 7699 
2532 | 7677 
2533 | 7659 
2534 | 7658 
2535 | 7673 
2536 | 7670 
2537 | 7684 
2538 | 7690 
2539 | 7711 
2540 | 7733 
2541 | 7736 
2542 | 7752 
2543 | 7767 
2544 | 7792 
2545 | 7819 
2546 | 7816 
2547 | 7803 
2548 | 7759 
2549 | 7672 
2550 | 7607 
2551 | 7553 
2552 | 7540 
2553 | 7522 
2554 | 7465 
2555 | 7422 
2556 | 7368 
2557 | 7352 
2558 | 7354 
2559 | 7335 
2560 | 7312 
2561 | 7284 
2562 | 7312 
2563 | 7345 
2564 | 7339 
2565 | 7330 
2566 | 7326 
2567 | 7314 
2568 | 7288 
2569 | 7256 
2570 | 7247 
2571 | 7247 
2572 | 7269 
2573 | 7310 
2574 | 7304 
2575 | 7303 
2576 | 7300 
2577 | 7262 
2578 | 7205 
2579 | 7143 
2580 | 7069 
2581 | 6986 
2582 | 6917 
2583 | 6889 
2584 | 6875 
2585 | 6857 
2586 | 6823 
2587 | 6782 
2588 | 6780 
2589 | 6790 
2590 | 6818 
2591 | 6826 
2592 | 6800 
2593 | 6790 
2594 | 6783 
2595 | 6785 
2596 | 6763 
2597 | 6715 
2598 | 6664 
2599 | 6591 
2600 | 6547 
2601 | 6524 
2602 | 6495 
2603 | 6481 
2604 | 6482 
2605 | 6491 
2606 | 6533 
2607 | 6559 
2608 | 6587 
2609 | 6598 
2610 | 6624 
2611 | 6652 
2612 | 6627 
2613 | 6606 
2614 | 6569 
2615 | 6531 
2616 | 6509 
2617 | 6493 
2618 | 6505 
2619 | 6553 
2620 | 6593 
2621 | 6665 
2622 | 6714 
2623 | 6732 
2624 | 6742 
2625 | 6726 
2626 | 6705 
2627 | 6659 
2628 | 6612 
2629 | 6597 
2630 | 6591 
2631 | 6607 
2632 | 6604 
2633 | 6606 
2634 | 6605 
2635 | 6593 
2636 | 6584 
2637 | 6565 
2638 | 6560 
2639 | 6574 
2640 | 6598 
2641 | 6636 
2642 | 6644 
2643 | 6639 
2644 | 6628 
2645 | 6596 
2646 | 6549 
2647 | 6488 
2648 | 6422 
2649 | 6385 
2650 | 6358 
2651 | 6371 
2652 | 6425 
2653 | 6483 
2654 | 6530 
2655 | 6560 
2656 | 6578 
2657 | 6597 
2658 | 6600 
2659 | 6647 
2660 | 6708 
2661 | 6769 
2662 | 6818 
2663 | 6836 
2664 | 6827 
2665 | 6800 
2666 | 6755 
2667 | 6704 
2668 | 6645 
2669 | 6609 
2670 | 6585 
2671 | 6592 
2672 | 6604 
2673 | 6599 
2674 | 6603 
2675 | 6639 
2676 | 6696 
2677 | 6737 
2678 | 6736 
2679 | 6730 
2680 | 6696 
2681 | 6639 
2682 | 6598 
2683 | 6555 
2684 | 6535 
2685 | 6514 
2686 | 6509 
2687 | 6513 
2688 | 6510 
2689 | 6529 
2690 | 6564 
2691 | 6598 
2692 | 6637 
2693 | 6646 
2694 | 6647 
2695 | 6643 
2696 | 6593 
2697 | 6560 
2698 | 6538 
2699 | 6540 
2700 | 6559 
2701 | 6571 
2702 | 6597 
2703 | 6596 
2704 | 6591 
2705 | 6629 
2706 | 6681 
2707 | 6771 
2708 | 6831 
2709 | 6880 
2710 | 6928 
2711 | 6964 
2712 | 6998 
2713 | 7028 
2714 | 7031 
2715 | 7041 
2716 | 7031 
2717 | 7043 
2718 | 7073 
2719 | 7094 
2720 | 7139 
2721 | 7195 
2722 | 7278 
2723 | 7361 
2724 | 7396 
2725 | 7415 
2726 | 7428 
2727 | 7432 
2728 | 7432 
2729 | 7416 
2730 | 7405 
2731 | 7379 
2732 | 7356 
2733 | 7357 
2734 | 7340 
2735 | 7310 
2736 | 7255 
2737 | 7217 
2738 | 7234 
2739 | 7262 
2740 | 7332 
2741 | 7367 
2742 | 7372 
2743 | 7347 
2744 | 7299 
2745 | 7303 
2746 | 7315 
2747 | 7317 
2748 | 7335 
2749 | 7335 
2750 | 7376 
2751 | 7429 
2752 | 7423 
2753 | 7409 
2754 | 7378 
2755 | 7366 
2756 | 7388 
2757 | 7436 
2758 | 7541 
2759 | 7649 
2760 | 7733 
2761 | 7787 
2762 | 7772 
2763 | 7742 
2764 | 7671 
2765 | 7601 
2766 | 7519 
2767 | 7437 
2768 | 7406 
2769 | 7381 
2770 | 7352 
2771 | 7358 
2772 | 7393 
2773 | 7459 
2774 | 7503 
2775 | 7514 
2776 | 7527 
2777 | 7508 
2778 | 7473 
2779 | 7440 
2780 | 7384 
2781 | 7331 
2782 | 7261 
2783 | 7217 
2784 | 7198 
2785 | 7188 
2786 | 7206 
2787 | 7219 
2788 | 7256 
2789 | 7297 
2790 | 7308 
2791 | 7311 
2792 | 7298 
2793 | 7288 
2794 | 7290 
2795 | 7276 
2796 | 7281 
2797 | 7258 
2798 | 7228 
2799 | 7208 
2800 | 7186 
2801 | 7179 
2802 | 7189 
2803 | 7187 
2804 | 7194 
2805 | 7186 
2806 | 7190 
2807 | 7187 
2808 | 7191 
2809 | 7242 
2810 | 7317 
2811 | 7389 
2812 | 7441 
2813 | 7479 
2814 | 7529 
2815 | 7551 
2816 | 7547 
2817 | 7512 
2818 | 7476 
2819 | 7444 
2820 | 7393 
2821 | 7372 
2822 | 7379 
2823 | 7402 
2824 | 7442 
2825 | 7469 
2826 | 7479 
2827 | 7482 
2828 | 7469 
2829 | 7465 
2830 | 7431 
2831 | 7375 
2832 | 7319 
2833 | 7255 
2834 | 7227 
2835 | 7232 
2836 | 7267 
2837 | 7316 
2838 | 7362 
2839 | 7419 
2840 | 7461 
2841 | 7464 
2842 | 7469 
2843 | 7460 
2844 | 7467 
2845 | 7487 
2846 | 7474 
2847 | 7417 
2848 | 7311 
2849 | 7239 
2850 | 7211 
2851 | 7200 
2852 | 7213 
2853 | 7246 
2854 | 7318 
2855 | 7423 
2856 | 7502 
2857 | 7581 
2858 | 7638 
2859 | 7678 
2860 | 7717 
2861 | 7721 
2862 | 7726 
2863 | 7689 
2864 | 7625 
2865 | 7549 
2866 | 7458 
2867 | 7417 
2868 | 7384 
2869 | 7357 
2870 | 7341 
2871 | 7340 
2872 | 7383 
2873 | 7426 
2874 | 7480 
2875 | 7530 
2876 | 7550 
2877 | 7572 
2878 | 7604 
2879 | 7610 
2880 | 7621 
2881 | 7601 
2882 | 7572 
2883 | 7571 
2884 | 7567 
2885 | 7571 
2886 | 7555 
2887 | 7539 
2888 | 7540 
2889 | 7517 
2890 | 7507 
2891 | 7497 
2892 | 7511 
2893 | 7560 
2894 | 7572 
2895 | 7563 
2896 | 7546 
2897 | 7528 
2898 | 7536 
2899 | 7532 
2900 | 7517 
2901 | 7504 
2902 | 7507 
2903 | 7540 
2904 | 7580 
2905 | 7619 
2906 | 7646 
2907 | 7668 
2908 | 7702 
2909 | 7704 
2910 | 7696 
2911 | 7661 
2912 | 7607 
2913 | 7577 
2914 | 7536 
2915 | 7478 
2916 | 7418 
2917 | 7368 
2918 | 7367 
2919 | 7375 
2920 | 7387 
2921 | 7415 
2922 | 7436 
2923 | 7493 
2924 | 7554 
2925 | 7605 
2926 | 7646 
2927 | 7678 
2928 | 7727 
2929 | 7748 
2930 | 7729 
2931 | 7726 
2932 | 7700 
2933 | 7677 
2934 | 7624 
2935 | 7567 
2936 | 7561 
2937 | 7585 
2938 | 7655 
2939 | 7723 
2940 | 7764 
2941 | 7843 
2942 | 7895 
2943 | 7932 
2944 | 7955 
2945 | 7934 
2946 | 7907 
2947 | 7868 
2948 | 7838 
2949 | 7805 
2950 | 7770 
2951 | 7756 
2952 | 7728 
2953 | 7718 
2954 | 7735 
2955 | 7766 
2956 | 7819 
2957 | 7853 
2958 | 7880 
2959 | 7920 
2960 | 7925 
2961 | 7936 
2962 | 7941 
2963 | 7929 
2964 | 7903 
2965 | 7857 
2966 | 7842 
2967 | 7834 
2968 | 7813 
2969 | 7808 
2970 | 7782 
2971 | 7779 
2972 | 7812 
2973 | 7856 
2974 | 7935 
2975 | 8003 
2976 | 8073 
2977 | 8131 
2978 | 8163 
2979 | 8210 
2980 | 8240 
2981 | 8211 
2982 | 8156 
2983 | 8095 
2984 | 8079 
2985 | 8069 
2986 | 8100 
2987 | 8145 
2988 | 8176 
2989 | 8233 
2990 | 8315 
2991 | 8410 
2992 | 8549 
2993 | 8674 
2994 | 8812 
2995 | 8958 
2996 | 9069 
2997 | 9194 
2998 | 9278 
2999 | 9378 
3000 | 9466 
3001 | 9552 
3002 | 9678 
3003 | 9827 
3004 | 9978 
3005 | 10104 
3006 | 10208 
3007 | 10300 
3008 | 10320 
3009 | 10276 
3010 | 10176 
3011 | 10024 
3012 | 9843 
3013 | 9603 
3014 | 9344 
3015 | 9100 
3016 | 8852 
3017 | 8649 
3018 | 8456 
3019 | 8298 
3020 | 8193 
3021 | 8105 
3022 | 8088 
3023 | 8078 
3024 | 8057 
3025 | 8043 
3026 | 8008 
3027 | 7988 
3028 | 7975 
3029 | 7956 
3030 | 7949 
3031 | 7934 
3032 | 7909 
3033 | 7890 
3034 | 7865 
3035 | 7851 
3036 | 7808 
3037 | 7783 
3038 | 7774 
3039 | 7800 
3040 | 7846 
3041 | 7860 
3042 | 7865 
3043 | 7871 
3044 | 7846 
3045 | 7833 
3046 | 7827 
3047 | 7821 
3048 | 7817 
3049 | 7789 
3050 | 7775 
3051 | 7750 
3052 | 7704 
3053 | 7682 
3054 | 7625 
3055 | 7613 
3056 | 7629 
3057 | 7647 
3058 | 7672 
3059 | 7688 
3060 | 7726 
3061 | 7771 
3062 | 7828 
3063 | 7867 
3064 | 7866 
3065 | 7847 
3066 | 7808 
3067 | 7761 
3068 | 7750 
3069 | 7732 
3070 | 7706 
3071 | 7699 
3072 | 7685 
3073 | 7696 
3074 | 7698 
3075 | 7711 
3076 | 7723 
3077 | 7729 
3078 | 7748 
3079 | 7740 
3080 | 7726 
3081 | 7723 
3082 | 7705 
3083 | 7689 
3084 | 7687 
3085 | 7650 
3086 | 7619 
3087 | 7594 
3088 | 7616 
3089 | 7647 
3090 | 7677 
3091 | 7727 
3092 | 7773 
3093 | 7829 
3094 | 7854 
3095 | 7831 
3096 | 7808 
3097 | 7767 
3098 | 7709 
3099 | 7664 
3100 | 7602 
3101 | 7552 
3102 | 7515 
3103 | 7496 
3104 | 7522 
3105 | 7565 
3106 | 7625 
3107 | 7669 
3108 | 7680 
3109 | 7684 
3110 | 7654 
3111 | 7624 
3112 | 7568 
3113 | 7486 
3114 | 7409 
3115 | 7350 
3116 | 7344 
3117 | 7380 
3118 | 7458 
3119 | 7556 
3120 | 7596 
3121 | 7628 
3122 | 7657 
3123 | 7708 
3124 | 7779 
3125 | 7804 
3126 | 7795 
3127 | 7774 
3128 | 7743 
3129 | 7715 
3130 | 7681 
3131 | 7660 
3132 | 7640 
3133 | 7611 
3134 | 7606 
3135 | 7601 
3136 | 7628 
3137 | 7693 
3138 | 7738 
3139 | 7774 
3140 | 7760 
3141 | 7690 
3142 | 7659 
3143 | 7645 
3144 | 7661 
3145 | 7672 
3146 | 7668 
3147 | 7656 
3148 | 7628 
3149 | 7626 
3150 | 7624 
3151 | 7633 
3152 | 7654 
3153 | 7661 
3154 | 7681 
3155 | 7717 
3156 | 7787 
3157 | 7871 
3158 | 7902 
3159 | 7902 
3160 | 7896 
3161 | 7859 
3162 | 7823 
3163 | 7762 
3164 | 7713 
3165 | 7682 
3166 | 7657 
3167 | 7653 
3168 | 7623 
3169 | 7597 
3170 | 7610 
3171 | 7626 
3172 | 7676 
3173 | 7714 
3174 | 7734 
3175 | 7730 
3176 | 7696 
3177 | 7693 
3178 | 7721 
3179 | 7755 
3180 | 7777 
3181 | 7768 
3182 | 7745 
3183 | 7713 
3184 | 7711 
3185 | 7755 
3186 | 7822 
3187 | 7886 
3188 | 7930 
3189 | 7972 
3190 | 8013 
3191 | 8046 
3192 | 8063 
3193 | 8065 
3194 | 8047 
3195 | 8049 
3196 | 8031 
3197 | 8007 
3198 | 7990 
3199 | 7960 
3200 | 7941 
3201 | 7895 
3202 | 7850 
3203 | 7833 
3204 | 7822 
3205 | 7845 
3206 | 7851 
3207 | 7850 
3208 | 7878 
3209 | 7870 
3210 | 7854 
3211 | 7833 
3212 | 7797 
3213 | 7795 
3214 | 7787 
3215 | 7809 
3216 | 7854 
3217 | 7916 
3218 | 7972 
3219 | 7970 
3220 | 7968 
3221 | 7968 
3222 | 7989 
3223 | 8035 
3224 | 8071 
3225 | 8093 
3226 | 8092 
3227 | 8076 
3228 | 8083 
3229 | 8075 
3230 | 8048 
3231 | 8025 
3232 | 8007 
3233 | 7980 
3234 | 7955 
3235 | 7930 
3236 | 7917 
3237 | 7903 
3238 | 7935 
3239 | 7990 
3240 | 8054 
3241 | 8110 
3242 | 8107 
3243 | 8096 
3244 | 8072 
3245 | 8040 
3246 | 8019 
3247 | 7995 
3248 | 7978 
3249 | 7964 
3250 | 7949 
3251 | 7942 
3252 | 7895 
3253 | 7868 
3254 | 7849 
3255 | 7826 
3256 | 7830 
3257 | 7834 
3258 | 7853 
3259 | 7863 
3260 | 7844 
3261 | 7830 
3262 | 7801 
3263 | 7781 
3264 | 7761 
3265 | 7694 
3266 | 7642 
3267 | 7613 
3268 | 7598 
3269 | 7594 
3270 | 7585 
3271 | 7585 
3272 | 7579 
3273 | 7597 
3274 | 7630 
3275 | 7656 
3276 | 7705 
3277 | 7721 
3278 | 7693 
3279 | 7627 
3280 | 7518 
3281 | 7422 
3282 | 7335 
3283 | 7246 
3284 | 7185 
3285 | 7137 
3286 | 7139 
3287 | 7152 
3288 | 7143 
3289 | 7152 
3290 | 7174 
3291 | 7231 
3292 | 7310 
3293 | 7390 
3294 | 7477 
3295 | 7513 
3296 | 7519 
3297 | 7484 
3298 | 7413 
3299 | 7366 
3300 | 7340 
3301 | 7321 
3302 | 7297 
3303 | 7272 
3304 | 7292 
3305 | 7341 
3306 | 7380 
3307 | 7416 
3308 | 7416 
3309 | 7419 
3310 | 7375 
3311 | 7316 
3312 | 7308 
3313 | 7303 
3314 | 7296 
3315 | 7278 
3316 | 7239 
3317 | 7222 
3318 | 7196 
3319 | 7198 
3320 | 7198 
3321 | 7191 
3322 | 7208 
3323 | 7238 
3324 | 7280 
3325 | 7354 
3326 | 7411 
3327 | 7464 
3328 | 7450 
3329 | 7412 
3330 | 7369 
3331 | 7316 
3332 | 7277 
3333 | 7244 
3334 | 7237 
3335 | 7229 
3336 | 7189 
3337 | 7183 
3338 | 7187 
3339 | 7186 
3340 | 7207 
3341 | 7262 
3342 | 7329 
3343 | 7356 
3344 | 7328 
3345 | 7302 
3346 | 7252 
3347 | 7218 
3348 | 7182 
3349 | 7146 
3350 | 7136 
3351 | 7112 
3352 | 7104 
3353 | 7093 
3354 | 7084 
3355 | 7123 
3356 | 7178 
3357 | 7238 
3358 | 7298 
3359 | 7324 
3360 | 7357 
3361 | 7366 
3362 | 7369 
3363 | 7359 
3364 | 7308 
3365 | 7265 
3366 | 7188 
3367 | 7104 
3368 | 7052 
3369 | 7004 
3370 | 7008 
3371 | 7049 
3372 | 7100 
3373 | 7167 
3374 | 7223 
3375 | 7281 
3376 | 7345 
3377 | 7394 
3378 | 7432 
3379 | 7418 
3380 | 7378 
3381 | 7354 
3382 | 7310 
3383 | 7273 
3384 | 7208 
3385 | 7139 
3386 | 7098 
3387 | 7058 
3388 | 7079 
3389 | 7115 
3390 | 7162 
3391 | 7189 
3392 | 7186 
3393 | 7191 
3394 | 7189 
3395 | 7182 
3396 | 7198 
3397 | 7206 
3398 | 7222 
3399 | 7227 
3400 | 7232 
3401 | 7274 
3402 | 7311 
3403 | 7366 
3404 | 7426 
3405 | 7483 
3406 | 7544 
3407 | 7574 
3408 | 7598 
3409 | 7614 
3410 | 7629 
3411 | 7661 
3412 | 7687 
3413 | 7710 
3414 | 7714 
3415 | 7673 
3416 | 7617 
3417 | 7543 
3418 | 7465 
3419 | 7405 
3420 | 7346 
3421 | 7324 
3422 | 7330 
3423 | 7372 
3424 | 7394 
3425 | 7360 
3426 | 7358 
3427 | 7367 
3428 | 7407 
3429 | 7467 
3430 | 7497 
3431 | 7485 
3432 | 7427 
3433 | 7357 
3434 | 7320 
3435 | 7298 
3436 | 7339 
3437 | 7367 
3438 | 7383 
3439 | 7405 
3440 | 7411 
3441 | 7443 
3442 | 7496 
3443 | 7561 
3444 | 7611 
3445 | 7602 
3446 | 7564 
3447 | 7491 
3448 | 7417 
3449 | 7356 
3450 | 7316 
3451 | 7294 
3452 | 7292 
3453 | 7255 
3454 | 7244 
3455 | 7275 
3456 | 7336 
3457 | 7403 
3458 | 7446 
3459 | 7475 
3460 | 7478 
3461 | 7469 
3462 | 7475 
3463 | 7446 
3464 | 7418 
3465 | 7361 
3466 | 7300 
3467 | 7285 
3468 | 7281 
3469 | 7284 
3470 | 7271 
3471 | 7267 
3472 | 7280 
3473 | 7293 
3474 | 7325 
3475 | 7353 
3476 | 7324 
3477 | 7318 
3478 | 7303 
3479 | 7264 
3480 | 7221 
3481 | 7168 
3482 | 7134 
3483 | 7114 
3484 | 7112 
3485 | 7130 
3486 | 7154 
3487 | 7185 
3488 | 7231 
3489 | 7311 
3490 | 7387 
3491 | 7425 
3492 | 7489 
3493 | 7537 
3494 | 7578 
3495 | 7634 
3496 | 7638 
3497 | 7591 
3498 | 7498 
3499 | 7395 
3500 | 7326 
3501 | 7239 
3502 | 7171 
3503 | 7101 
3504 | 7054 
3505 | 7070 
3506 | 7101 
3507 | 7176 
3508 | 7259 
3509 | 7324 
3510 | 7389 
3511 | 7422 
3512 | 7415 
3513 | 7390 
3514 | 7333 
3515 | 7294 
3516 | 7248 
3517 | 7216 
3518 | 7188 
3519 | 7176 
3520 | 7210 
3521 | 7270 
3522 | 7342 
3523 | 7400 
3524 | 7421 
3525 | 7452 
3526 | 7479 
3527 | 7491 
3528 | 7494 
3529 | 7460 
3530 | 7404 
3531 | 7354 
3532 | 7333 
3533 | 7362 
3534 | 7377 
3535 | 7396 
3536 | 7416 
3537 | 7411 
3538 | 7454 
3539 | 7511 
3540 | 7577 
3541 | 7634 
3542 | 7663 
3543 | 7669 
3544 | 7584 
3545 | 7496 
3546 | 7460 
3547 | 7426 
3548 | 7428 
3549 | 7434 
3550 | 7473 
3551 | 7528 
3552 | 7549 
3553 | 7578 
3554 | 7600 
3555 | 7633 
3556 | 7694 
3557 | 7768 
3558 | 7858 
3559 | 7936 
3560 | 8000 
3561 | 8056 
3562 | 8070 
3563 | 8058 
3564 | 8020 
3565 | 7966 
3566 | 7932 
3567 | 7884 
3568 | 7854 
3569 | 7823 
3570 | 7816 
3571 | 7857 
3572 | 7888 
3573 | 7922 
3574 | 7928 
3575 | 7912 
3576 | 7924 
3577 | 7919 
3578 | 7912 
3579 | 7884 
3580 | 7843 
3581 | 7828 
3582 | 7773 
3583 | 7709 
3584 | 7670 
3585 | 7633 
3586 | 7634 
3587 | 7638 
3588 | 7651 
3589 | 7708 
3590 | 7763 
3591 | 7804 
3592 | 7795 
3593 | 7762 
3594 | 7724 
3595 | 7722 
3596 | 7737 
3597 | 7726 
3598 | 7695 
3599 | 7682 
3600 | 7650 
3601 | 7627 
3602 | 7603 
3603 | 7576 
3604 | 7584 
3605 | 7577 
3606 | 7570 
3607 | 7551 
3608 | 7497 
3609 | 7450 
3610 | 7390 
3611 | 7333 
3612 | 7281 
3613 | 7238 
3614 | 7230 
3615 | 7237 
3616 | 7259 
3617 | 7309 
3618 | 7336 
3619 | 7370 
3620 | 7376 
3621 | 7354 
3622 | 7389 
3623 | 7418 
3624 | 7448 
3625 | 7458 
3626 | 7433 
3627 | 7398 
3628 | 7336 
3629 | 7289 
3630 | 7212 
3631 | 7131 
3632 | 7094 
3633 | 7076 
3634 | 7074 
3635 | 7070 
3636 | 7066 
3637 | 7084 
3638 | 7091 
3639 | 7107 
3640 | 7141 
3641 | 7193 
3642 | 7254 
3643 | 7283 
3644 | 7304 
3645 | 7311 
3646 | 7284 
3647 | 7270 
3648 | 7267 
3649 | 7286 
3650 | 7311 
3651 | 7278 
3652 | 7230 
3653 | 7174 
3654 | 7164 
3655 | 7189 
3656 | 7222 
3657 | 7292 
3658 | 7403 
3659 | 7499 
3660 | 7590 
3661 | 7615 
3662 | 7598 
3663 | 7528 
3664 | 7446 
3665 | 7393 
3666 | 7332 
3667 | 7307 
3668 | 7285 
3669 | 7272 
3670 | 7296 
3671 | 7322 
3672 | 7382 
3673 | 7484 
3674 | 7583 
3675 | 7673 
3676 | 7743 
3677 | 7824 
3678 | 7931 
3679 | 8023 
3680 | 8098 
3681 | 8162 
3682 | 8252 
3683 | 8401 
3684 | 8557 
3685 | 8722 
3686 | 8876 
3687 | 8997 
3688 | 9104 
3689 | 9174 
3690 | 9231 
3691 | 9300 
3692 | 9353 
3693 | 9425 
3694 | 9431 
3695 | 9356 
3696 | 9184 
3697 | 8966 
3698 | 8750 
3699 | 8540 
3700 | 8339 
3701 | 8129 
3702 | 7940 
3703 | 7784 
3704 | 7644 
3705 | 7566 
3706 | 7517 
3707 | 7479 
3708 | 7452 
3709 | 7418 
3710 | 7390 
3711 | 7377 
3712 | 7355 
3713 | 7344 
3714 | 7354 
3715 | 7373 
3716 | 7402 
3717 | 7395 
3718 | 7376 
3719 | 7319 
3720 | 7251 
3721 | 7181 
3722 | 7130 
3723 | 7113 
3724 | 7131 
3725 | 7160 
3726 | 7207 
3727 | 7238 
3728 | 7264 
3729 | 7255 
3730 | 7211 
3731 | 7161 
3732 | 7102 
3733 | 7064 
3734 | 7058 
3735 | 7049 
3736 | 7066 
3737 | 7078 
3738 | 7096 
3739 | 7129 
3740 | 7174 
3741 | 7228 
3742 | 7254 
3743 | 7286 
3744 | 7317 
3745 | 7307 
3746 | 7262 
3747 | 7177 
3748 | 7095 
3749 | 7072 
3750 | 7081 
3751 | 7121 
3752 | 7141 
3753 | 7143 
3754 | 7163 
3755 | 7194 
3756 | 7250 
3757 | 7297 
3758 | 7332 
3759 | 7371 
3760 | 7392 
3761 | 7419 
3762 | 7439 
3763 | 7459 
3764 | 7484 
3765 | 7484 
3766 | 7448 
3767 | 7383 
3768 | 7299 
3769 | 7257 
3770 | 7202 
3771 | 7160 
3772 | 7157 
3773 | 7159 
3774 | 7200 
3775 | 7246 
3776 | 7278 
3777 | 7306 
3778 | 7319 
3779 | 7333 
3780 | 7324 
3781 | 7327 
3782 | 7340 
3783 | 7335 
3784 | 7314 
3785 | 7295 
3786 | 7278 
3787 | 7299 
3788 | 7325 
3789 | 7354 
3790 | 7379 
3791 | 7411 
3792 | 7461 
3793 | 7465 
3794 | 7487 
3795 | 7521 
3796 | 7514 
3797 | 7487 
3798 | 7443 
3799 | 7388 
3800 | 7342 
3801 | 7317 
3802 | 7367 
3803 | 7426 
3804 | 7463 
3805 | 7531 
3806 | 7603 
3807 | 7696 
3808 | 7769 
3809 | 7799 
3810 | 7795 
3811 | 7746 
3812 | 7701 
3813 | 7626 
3814 | 7541 
3815 | 7475 
3816 | 7395 
3817 | 7339 
3818 | 7302 
3819 | 7285 
3820 | 7298 
3821 | 7293 
3822 | 7315 
3823 | 7369 
3824 | 7431 
3825 | 7502 
3826 | 7555 
3827 | 7607 
3828 | 7659 
3829 | 7689 
3830 | 7726 
3831 | 7719 
3832 | 7711 
3833 | 7693 
3834 | 7667 
3835 | 7616 
3836 | 7546 
3837 | 7504 
3838 | 7542 
3839 | 7608 
3840 | 7690 
3841 | 7741 
3842 | 7774 
3843 | 7803 
3844 | 7796 
3845 | 7799 
3846 | 7791 
3847 | 7757 
3848 | 7744 
3849 | 7725 
3850 | 7721 
3851 | 7718 
3852 | 7736 
3853 | 7784 
3854 | 7821 
3855 | 7873 
3856 | 7907 
3857 | 7916 
3858 | 7921 
3859 | 7870 
3860 | 7817 
3861 | 7774 
3862 | 7715 
3863 | 7662 
3864 | 7597 
3865 | 7532 
3866 | 7491 
3867 | 7476 
3868 | 7505 
3869 | 7525 
3870 | 7544 
3871 | 7569 
3872 | 7601 
3873 | 7666 
3874 | 7720 
3875 | 7762 
3876 | 7819 
3877 | 7826 
3878 | 7835 
3879 | 7829 
3880 | 7798 
3881 | 7738 
3882 | 7668 
3883 | 7650 
3884 | 7644 
3885 | 7629 
3886 | 7625 
3887 | 7601 
3888 | 7626 
3889 | 7703 
3890 | 7777 
3891 | 7838 
3892 | 7863 
3893 | 7908 
3894 | 7960 
3895 | 7985 
3896 | 7996 
3897 | 7960 
3898 | 7917 
3899 | 7909 
3900 | 7882 
3901 | 7844 
3902 | 7825 
3903 | 7821 
3904 | 7847 
3905 | 7866 
3906 | 7939 
3907 | 8006 
3908 | 8033 
3909 | 8017 
3910 | 7990 
3911 | 7990 
3912 | 7996 
3913 | 7985 
3914 | 7977 
3915 | 7956 
3916 | 7956 
3917 | 7965 
3918 | 7981 
3919 | 8033 
3920 | 8077 
3921 | 8152 
3922 | 8250 
3923 | 8315 
3924 | 8378 
3925 | 8379 
3926 | 8328 
3927 | 8243 
3928 | 8147 
3929 | 8094 
3930 | 8056 
3931 | 8037 
3932 | 8028 
3933 | 7976 
3934 | 7930 
3935 | 7882 
3936 | 7842 
3937 | 7829 
3938 | 7832 
3939 | 7890 
3940 | 7956 
3941 | 7998 
3942 | 8021 
3943 | 8010 
3944 | 8003 
3945 | 7989 
3946 | 7968 
3947 | 7943 
3948 | 7892 
3949 | 7846 
3950 | 7798 
3951 | 7738 
3952 | 7711 
3953 | 7679 
3954 | 7655 
3955 | 7626 
3956 | 7611 
3957 | 7668 
3958 | 7735 
3959 | 7771 
3960 | 7805 
3961 | 7855 
3962 | 7920 
3963 | 7942 
3964 | 7934 
3965 | 7873 
3966 | 7778 
3967 | 7703 
3968 | 7634 
3969 | 7572 
3970 | 7523 
3971 | 7501 
3972 | 7529 
3973 | 7546 
3974 | 7554 
3975 | 7582 
3976 | 7573 
3977 | 7575 
3978 | 7594 
3979 | 7609 
3980 | 7626 
3981 | 7623 
3982 | 7643 
3983 | 7670 
3984 | 7666 
3985 | 7660 
3986 | 7653 
3987 | 7660 
3988 | 7710 
3989 | 7757 
3990 | 7837 
3991 | 7911 
3992 | 7972 
3993 | 8006 
3994 | 8001 
3995 | 8016 
3996 | 8037 
3997 | 8054 
3998 | 8057 
3999 | 8019 
4000 | 7976 
4001 | 7931 
4002 | 7881 
4003 | 7858 
4004 | 7865 
4005 | 7941 
4006 | 8025 
4007 | 8089 
4008 | 8133 
4009 | 8150 
4010 | 8173 
4011 | 8197 
4012 | 8183 
4013 | 8145 
4014 | 8087 
4015 | 8045 
4016 | 8024 
4017 | 8014 
4018 | 8030 
4019 | 8034 
4020 | 8036 
4021 | 8076 
4022 | 8138 
4023 | 8203 
4024 | 8240 
4025 | 8257 
4026 | 8242 
4027 | 8215 
4028 | 8232 
4029 | 8242 
4030 | 8214 
4031 | 8157 
4032 | 8069 
4033 | 8011 
4034 | 7961 
4035 | 7920 
4036 | 7927 
4037 | 7931 
4038 | 7963 
4039 | 7997 
4040 | 8020 
4041 | 8070 
4042 | 8081 
4043 | 8084 
4044 | 8085 
4045 | 8076 
4046 | 8069 
4047 | 8051 
4048 | 8048 
4049 | 8058 
4050 | 8079 
4051 | 8145 
4052 | 8170 
4053 | 8169 
4054 | 8172 
4055 | 8178 
4056 | 8231 
4057 | 8278 
4058 | 8306 
4059 | 8312 
4060 | 8267 
4061 | 8232 
4062 | 8177 
4063 | 8112 
4064 | 8090 
4065 | 8058 
4066 | 8066 
4067 | 8091 
4068 | 8112 
4069 | 8138 
4070 | 8138 
4071 | 8143 
4072 | 8148 
4073 | 8153 
4074 | 8156 
4075 | 8158 
4076 | 8191 
4077 | 8226 
4078 | 8249 
4079 | 8273 
4080 | 8261 
4081 | 8246 
4082 | 8256 
4083 | 8266 
4084 | 8288 
4085 | 8293 
4086 | 8280 
4087 | 8288 
4088 | 8311 
4089 | 8377 
4090 | 8461 
4091 | 8555 
4092 | 8620 
4093 | 8613 
4094 | 8602 
4095 | 8598 
4096 | 8580 
4097 | 8554 
4098 | 8496 
4099 | 8448 
4100 | 8425 
4101 | 8400 
4102 | 8398 
4103 | 8408 
4104 | 8458 
4105 | 8514 
4106 | 8555 
4107 | 8599 
4108 | 8571 
4109 | 8480 
4110 | 8393 
4111 | 8354 
4112 | 8381 
4113 | 8402 
4114 | 8397 
4115 | 8363 
4116 | 8312 
4117 | 8302 
4118 | 8297 
4119 | 8309 
4120 | 8309 
4121 | 8301 
4122 | 8332 
4123 | 8349 
4124 | 8391 
4125 | 8449 
4126 | 8474 
4127 | 8500 
4128 | 8504 
4129 | 8491 
4130 | 8473 
4131 | 8440 
4132 | 8417 
4133 | 8379 
4134 | 8331 
4135 | 8307 
4136 | 8290 
4137 | 8293 
4138 | 8321 
4139 | 8358 
4140 | 8423 
4141 | 8479 
4142 | 8520 
4143 | 8531 
4144 | 8498 
4145 | 8478 
4146 | 8442 
4147 | 8398 
4148 | 8360 
4149 | 8323 
4150 | 8310 
4151 | 8281 
4152 | 8269 
4153 | 8300 
4154 | 8346 
4155 | 8407 
4156 | 8452 
4157 | 8489 
4158 | 8508 
4159 | 8493 
4160 | 8480 
4161 | 8453 
4162 | 8437 
4163 | 8403 
4164 | 8351 
4165 | 8328 
4166 | 8312 
4167 | 8289 
4168 | 8279 
4169 | 8261 
4170 | 8261 
4171 | 8273 
4172 | 8283 
4173 | 8314 
4174 | 8309 
4175 | 8300 
4176 | 8300 
4177 | 8300 
4178 | 8324 
4179 | 8327 
4180 | 8340 
4181 | 8333 
4182 | 8282 
4183 | 8252 
4184 | 8229 
4185 | 8209 
4186 | 8167 
4187 | 8135 
4188 | 8133 
4189 | 8145 
4190 | 8181 
4191 | 8250 
4192 | 8311 
4193 | 8375 
4194 | 8421 
4195 | 8440 
4196 | 8437 
4197 | 8381 
4198 | 8360 
4199 | 8367 
4200 | 8398 
4201 | 8466 
4202 | 8495 
4203 | 8535 
4204 | 8596 
4205 | 8657 
4206 | 8700 
4207 | 8686 
4208 | 8687 
4209 | 8684 
4210 | 8672 
4211 | 8655 
4212 | 8623 
4213 | 8578 
4214 | 8524 
4215 | 8475 
4216 | 8461 
4217 | 8429 
4218 | 8409 
4219 | 8382 
4220 | 8311 
4221 | 8275 
4222 | 8270 
4223 | 8303 
4224 | 8368 
4225 | 8406 
4226 | 8440 
4227 | 8447 
4228 | 8419 
4229 | 8390 
4230 | 8340 
4231 | 8298 
4232 | 8268 
4233 | 8226 
4234 | 8222 
4235 | 8221 
4236 | 8254 
4237 | 8285 
4238 | 8299 
4239 | 8320 
4240 | 8329 
4241 | 8362 
4242 | 8379 
4243 | 8372 
4244 | 8377 
4245 | 8351 
4246 | 8331 
4247 | 8320 
4248 | 8284 
4249 | 8263 
4250 | 8236 
4251 | 8225 
4252 | 8241 
4253 | 8217 
4254 | 8205 
4255 | 8207 
4256 | 8225 
4257 | 8264 
4258 | 8282 
4259 | 8302 
4260 | 8321 
4261 | 8347 
4262 | 8375 
4263 | 8358 
4264 | 8330 
4265 | 8305 
4266 | 8292 
4267 | 8302 
4268 | 8265 
4269 | 8232 
4270 | 8221 
4271 | 8225 
4272 | 8268 
4273 | 8299 
4274 | 8314 
4275 | 8308 
4276 | 8290 
4277 | 8288 
4278 | 8271 
4279 | 8231 
4280 | 8165 
4281 | 8051 
4282 | 7958 
4283 | 7894 
4284 | 7833 
4285 | 7815 
4286 | 7812 
4287 | 7811 
4288 | 7796 
4289 | 7804 
4290 | 7841 
4291 | 7871 
4292 | 7913 
4293 | 7954 
4294 | 7958 
4295 | 7970 
4296 | 7957 
4297 | 7964 
4298 | 7982 
4299 | 7964 
4300 | 7937 
4301 | 7898 
4302 | 7877 
4303 | 7840 
4304 | 7801 
4305 | 7805 
4306 | 7834 
4307 | 7868 
4308 | 7898 
4309 | 7892 
4310 | 7902 
4311 | 7915 
4312 | 7930 
4313 | 7958 
4314 | 7952 
4315 | 7959 
4316 | 7950 
4317 | 7947 
4318 | 7973 
4319 | 7975 
4320 | 7956 
4321 | 7943 
4322 | 7959 
4323 | 8008 
4324 | 8042 
4325 | 8066 
4326 | 8049 
4327 | 7995 
4328 | 7966 
4329 | 7916 
4330 | 7866 
4331 | 7824 
4332 | 7795 
4333 | 7796 
4334 | 7807 
4335 | 7813 
4336 | 7834 
4337 | 7834 
4338 | 7873 
4339 | 7929 
4340 | 7999 
4341 | 8060 
4342 | 8070 
4343 | 8062 
4344 | 8052 
4345 | 8052 
4346 | 8062 
4347 | 8041 
4348 | 8059 
4349 | 8070 
4350 | 8084 
4351 | 8108 
4352 | 8136 
4353 | 8186 
4354 | 8212 
4355 | 8196 
4356 | 8211 
4357 | 8227 
4358 | 8269 
4359 | 8296 
4360 | 8305 
4361 | 8329 
4362 | 8329 
4363 | 8337 
4364 | 8363 
4365 | 8419 
4366 | 8519 
4367 | 8612 
4368 | 8741 
4369 | 8915 
4370 | 9113 
4371 | 9329 
4372 | 9512 
4373 | 9697 
4374 | 9857 
4375 | 9966 
4376 | 10073 
4377 | 10127 
4378 | 10146 
4379 | 10173 
4380 | 10156 
4381 | 10139 
4382 | 10066 
4383 | 9957 
4384 | 9842 
4385 | 9662 
4386 | 9478 
4387 | 9290 
4388 | 9120 
4389 | 8991 
4390 | 8852 
4391 | 8732 
4392 | 8615 
4393 | 8477 
4394 | 8372 
4395 | 8290 
4396 | 8233 
4397 | 8171 
4398 | 8105 
4399 | 8084 
4400 | 8065 
4401 | 8063 
4402 | 8081 
4403 | 8082 
4404 | 8080 
4405 | 8083 
4406 | 8088 
4407 | 8099 
4408 | 8086 
4409 | 8069 
4410 | 8027 
4411 | 7982 
4412 | 7957 
4413 | 7922 
4414 | 7917 
4415 | 7920 
4416 | 7923 
4417 | 7946 
4418 | 7967 
4419 | 7993 
4420 | 8011 
4421 | 8021 
4422 | 8070 
4423 | 8115 
4424 | 8135 
4425 | 8145 
4426 | 8149 
4427 | 8209 
4428 | 8262 
4429 | 8281 
4430 | 8265 
4431 | 8207 
4432 | 8157 
4433 | 8122 
4434 | 8100 
4435 | 8108 
4436 | 8096 
4437 | 8097 
4438 | 8098 
4439 | 8099 
4440 | 8090 
4441 | 8058 
4442 | 8061 
4443 | 8093 
4444 | 8135 
4445 | 8164 
4446 | 8149 
4447 | 8107 
4448 | 8059 
4449 | 8024 
4450 | 8010 
4451 | 7991 
4452 | 8018 
4453 | 8047 
4454 | 8046 
4455 | 8063 
4456 | 8079 
4457 | 8136 
4458 | 8163 
4459 | 8178 
4460 | 8205 
4461 | 8241 
4462 | 8267 
4463 | 8265 
4464 | 8220 
4465 | 8193 
4466 | 8176 
4467 | 8162 
4468 | 8168 
4469 | 8172 
4470 | 8219 
4471 | 8268 
4472 | 8306 
4473 | 8349 
4474 | 8354 
4475 | 8361 
4476 | 8343 
4477 | 8323 
4478 | 8327 
4479 | 8321 
4480 | 8341 
4481 | 8331 
4482 | 8319 
4483 | 8325 
4484 | 8310 
4485 | 8314 
4486 | 8326 
4487 | 8313 
4488 | 8339 
4489 | 8374 
4490 | 8435 
4491 | 8502 
4492 | 8537 
4493 | 8564 
4494 | 8577 
4495 | 8580 
4496 | 8567 
4497 | 8538 
4498 | 8524 
4499 | 8479 
4500 | 8443 
4501 | 8445 
4502 | 8460 
4503 | 8487 
4504 | 8511 
4505 | 8526 
4506 | 8567 
4507 | 8618 
4508 | 8710 
4509 | 8789 
4510 | 8856 
4511 | 8904 
4512 | 8899 
4513 | 8882 
4514 | 8854 
4515 | 8803 
4516 | 8769 
4517 | 8727 
4518 | 8740 
4519 | 8782 
4520 | 8800 
4521 | 8857 
4522 | 8901 
4523 | 8930 
4524 | 8938 
4525 | 8916 
4526 | 8935 
4527 | 8956 
4528 | 8993 
4529 | 9009 
4530 | 8990 
4531 | 8976 
4532 | 8948 
4533 | 8938 
4534 | 8939 
4535 | 8940 
4536 | 8973 
4537 | 8996 
4538 | 9052 
4539 | 9122 
4540 | 9148 
4541 | 9175 
4542 | 9189 
4543 | 9187 
4544 | 9215 
4545 | 9226 
4546 | 9248 
4547 | 9287 
4548 | 9332 
4549 | 9390 
4550 | 9385 
4551 | 9362 
4552 | 9336 
4553 | 9314 
4554 | 9321 
4555 | 9314 
4556 | 9293 
4557 | 9276 
4558 | 9257 
4559 | 9250 
4560 | 9213 
4561 | 9203 
4562 | 9257 
4563 | 9282 
4564 | 9279 
4565 | 9272 
4566 | 9273 
4567 | 9303 
4568 | 9358 
4569 | 9449 
4570 | 9525 
4571 | 9592 
4572 | 9658 
4573 | 9684 
4574 | 9751 
4575 | 9833 
4576 | 9902 
4577 | 9945 
4578 | 9938 
4579 | 9909 
4580 | 9856 
4581 | 9790 
4582 | 9785 
4583 | 9785 
4584 | 9804 
4585 | 9837 
4586 | 9864 
4587 | 9915 
4588 | 9957 
4589 | 10013 
4590 | 10068 
4591 | 10101 
4592 | 10129 
4593 | 10093 
4594 | 10059 
4595 | 10058 
4596 | 10057 
4597 | 10043 
4598 | 10004 
4599 | 9973 
4600 | 9982 
4601 | 9969 
4602 | 9984 
4603 | 10005 
4604 | 10045 
4605 | 10099 
4606 | 10118 
4607 | 10149 
4608 | 10190 
4609 | 10216 
4610 | 10243 
4611 | 10246 
4612 | 10260 
4613 | 10238 
4614 | 10203 
4615 | 10173 
4616 | 10120 
4617 | 10069 
4618 | 10049 
4619 | 10039 
4620 | 10088 
4621 | 10123 
4622 | 10178 
4623 | 10234 
4624 | 10252 
4625 | 10269 
4626 | 10263 
4627 | 10239 
4628 | 10220 
4629 | 10147 
4630 | 10064 
4631 | 9988 
4632 | 9944 
4633 | 9925 
4634 | 9886 
4635 | 9861 
4636 | 9859 
4637 | 9854 
4638 | 9888 
4639 | 9936 
4640 | 9990 
4641 | 10068 
4642 | 10141 
4643 | 10213 
4644 | 10221 
4645 | 10186 
4646 | 10131 
4647 | 10062 
4648 | 10020 
4649 | 9969 
4650 | 9924 
4651 | 9881 
4652 | 9834 
4653 | 9815 
4654 | 9787 
4655 | 9788 
4656 | 9808 
4657 | 9811 
4658 | 9822 
4659 | 9817 
4660 | 9797 
4661 | 9790 
4662 | 9753 
4663 | 9711 
4664 | 9640 
4665 | 9597 
4666 | 9584 
4667 | 9580 
4668 | 9594 
4669 | 9590 
4670 | 9567 
4671 | 9582 
4672 | 9586 
4673 | 9610 
4674 | 9625 
4675 | 9620 
4676 | 9628 
4677 | 9611 
4678 | 9609 
4679 | 9609 
4680 | 9568 
4681 | 9521 
4682 | 9463 
4683 | 9402 
4684 | 9359 
4685 | 9337 
4686 | 9386 
4687 | 9458 
4688 | 9575 
4689 | 9699 
4690 | 9784 
4691 | 9821 
4692 | 9806 
4693 | 9751 
4694 | 9679 
4695 | 9590 
4696 | 9543 
4697 | 9488 
4698 | 9440 
4699 | 9407 
4700 | 9375 
4701 | 9371 
4702 | 9367 
4703 | 9363 
4704 | 9404 
4705 | 9420 
4706 | 9438 
4707 | 9446 
4708 | 9424 
4709 | 9441 
4710 | 9457 
4711 | 9468 
4712 | 9463 
4713 | 9424 
4714 | 9406 
4715 | 9375 
4716 | 9357 
4717 | 9352 
4718 | 9343 
4719 | 9358 
4720 | 9367 
4721 | 9373 
4722 | 9395 
4723 | 9429 
4724 | 9488 
4725 | 9521 
4726 | 9540 
4727 | 9548 
4728 | 9529 
4729 | 9526 
4730 | 9485 
4731 | 9420 
4732 | 9368 
4733 | 9316 
4734 | 9307 
4735 | 9296 
4736 | 9279 
4737 | 9294 
4738 | 9312 
4739 | 9354 
4740 | 9383 
4741 | 9401 
4742 | 9414 
4743 | 9409 
4744 | 9406 
4745 | 9387 
4746 | 9339 
4747 | 9319 
4748 | 9291 
4749 | 9278 
4750 | 9255 
4751 | 9208 
4752 | 9169 
4753 | 9112 
4754 | 9087 
4755 | 9122 
4756 | 9142 
4757 | 9185 
4758 | 9212 
4759 | 9225 
4760 | 9233 
4761 | 9220 
4762 | 9219 
4763 | 9223 
4764 | 9219 
4765 | 9232 
4766 | 9209 
4767 | 9173 
4768 | 9144 
4769 | 9093 
4770 | 9085 
4771 | 9096 
4772 | 9159 
4773 | 9230 
4774 | 9278 
4775 | 9311 
4776 | 9310 
4777 | 9299 
4778 | 9287 
4779 | 9250 
4780 | 9210 
4781 | 9158 
4782 | 9107 
4783 | 9092 
4784 | 9095 
4785 | 9124 
4786 | 9116 
4787 | 9099 
4788 | 9114 
4789 | 9120 
4790 | 9147 
4791 | 9134 
4792 | 9101 
4793 | 9085 
4794 | 9051 
4795 | 9040 
4796 | 9015 
4797 | 8989 
4798 | 8976 
4799 | 8935 
4800 | 8934 
4801 | 8952 
4802 | 8971 
4803 | 9001 
4804 | 8984 
4805 | 8971 
4806 | 8959 
4807 | 8922 
4808 | 8894 
4809 | 8836 
4810 | 8795 
4811 | 8765 
4812 | 8750 
4813 | 8763 
4814 | 8765 
4815 | 8786 
4816 | 8817 
4817 | 8838 
4818 | 8852 
4819 | 8855 
4820 | 8854 
4821 | 8900 
4822 | 8920 
4823 | 8949 
4824 | 8963 
4825 | 8948 
4826 | 8955 
4827 | 8941 
4828 | 8961 
4829 | 8955 
4830 | 8929 
4831 | 8923 
4832 | 8908 
4833 | 8906 
4834 | 8880 
4835 | 8829 
4836 | 8792 
4837 | 8743 
4838 | 8727 
4839 | 8739 
4840 | 8745 
4841 | 8772 
4842 | 8758 
4843 | 8743 
4844 | 8733 
4845 | 8687 
4846 | 8659 
4847 | 8642 
4848 | 8623 
4849 | 8625 
4850 | 8583 
4851 | 8559 
4852 | 8544 
4853 | 8563 
4854 | 8605 
4855 | 8641 
4856 | 8681 
4857 | 8710 
4858 | 8715 
4859 | 8729 
4860 | 8707 
4861 | 8672 
4862 | 8610 
4863 | 8524 
4864 | 8443 
4865 | 8336 
4866 | 8233 
4867 | 8157 
4868 | 8132 
4869 | 8160 
4870 | 8201 
4871 | 8251 
4872 | 8309 
4873 | 8383 
4874 | 8465 
4875 | 8516 
4876 | 8545 
4877 | 8557 
4878 | 8548 
4879 | 8557 
4880 | 8551 
4881 | 8534 
4882 | 8510 
4883 | 8448 
4884 | 8398 
4885 | 8342 
4886 | 8319 
4887 | 8314 
4888 | 8318 
4889 | 8351 
4890 | 8335 
4891 | 8315 
4892 | 8334 
4893 | 8350 
4894 | 8375 
4895 | 8393 
4896 | 8374 
4897 | 8363 
4898 | 8333 
4899 | 8322 
4900 | 8323 
4901 | 8300 
4902 | 8288 
4903 | 8259 
4904 | 8256 
4905 | 8259 
4906 | 8278 
4907 | 8311 
4908 | 8310 
4909 | 8271 
4910 | 8214 
4911 | 8160 
4912 | 8143 
4913 | 8120 
4914 | 8106 
4915 | 8105 
4916 | 8102 
4917 | 8118 
4918 | 8111 
4919 | 8106 
4920 | 8121 
4921 | 8105 
4922 | 8084 
4923 | 8050 
4924 | 8018 
4925 | 8026 
4926 | 8048 
4927 | 8072 
4928 | 8074 
4929 | 8041 
4930 | 7996 
4931 | 7942 
4932 | 7915 
4933 | 7920 
4934 | 7918 
4935 | 7928 
4936 | 7932 
4937 | 7955 
4938 | 8015 
4939 | 8077 
4940 | 8149 
4941 | 8194 
4942 | 8248 
4943 | 8277 
4944 | 8274 
4945 | 8270 
4946 | 8245 
4947 | 8202 
4948 | 8144 
4949 | 8077 
4950 | 8040 
4951 | 8029 
4952 | 8033 
4953 | 8048 
4954 | 8063 
4955 | 8099 
4956 | 8123 
4957 | 8142 
4958 | 8165 
4959 | 8168 
4960 | 8164 
4961 | 8168 
4962 | 8150 
4963 | 8119 
4964 | 8064 
4965 | 8043 
4966 | 8045 
4967 | 8028 
4968 | 7993 
4969 | 7934 
4970 | 7885 
4971 | 7883 
4972 | 7924 
4973 | 8010 
4974 | 8065 
4975 | 8105 
4976 | 8145 
4977 | 8175 
4978 | 8232 
4979 | 8262 
4980 | 8264 
4981 | 8261 
4982 | 8203 
4983 | 8186 
4984 | 8196 
4985 | 8192 
4986 | 8215 
4987 | 8244 
4988 | 8275 
4989 | 8286 
4990 | 8284 
4991 | 8290 
4992 | 8272 
4993 | 8262 
4994 | 8243 
4995 | 8201 
4996 | 8159 
4997 | 8089 
4998 | 8008 
4999 | 7931 
5000 | 7865 
5001 | 7835 
5002 | 7812 
5003 | 7798 
5004 | 7800 
5005 | 7792 
5006 | 7810 
5007 | 7814 
5008 | 7808 
5009 | 7821 
5010 | 7830 
5011 | 7831 
5012 | 7827 
5013 | 7803 
5014 | 7763 
5015 | 7725 
5016 | 7733 
5017 | 7741 
5018 | 7728 
5019 | 7717 
5020 | 7714 
5021 | 7742 
5022 | 7817 
5023 | 7901 
5024 | 7992 
5025 | 8023 
5026 | 8064 
5027 | 8098 
5028 | 8045 
5029 | 7966 
5030 | 7865 
5031 | 7798 
5032 | 7776 
5033 | 7746 
5034 | 7718 
5035 | 7692 
5036 | 7682 
5037 | 7677 
5038 | 7662 
5039 | 7673 
5040 | 7700 
5041 | 7743 
5042 | 7785 
5043 | 7796 
5044 | 7829 
5045 | 7850 
5046 | 7843 
5047 | 7816 
5048 | 7776 
5049 | 7782 
5050 | 7809 
5051 | 7806 
5052 | 7814 
5053 | 7798 
5054 | 7811 
5055 | 7878 
5056 | 7919 
5057 | 7927 
5058 | 7905 
5059 | 7887 
5060 | 7867 
5061 | 7818 
5062 | 7796 
5063 | 7755 
5064 | 7725 
5065 | 7718 
5066 | 7728 
5067 | 7762 
5068 | 7776 
5069 | 7813 
5070 | 7856 
5071 | 7887 
5072 | 7912 
5073 | 7914 
5074 | 7894 
5075 | 7893 
5076 | 7920 
5077 | 8004 
5078 | 8104 
5079 | 8148 
5080 | 8163 
5081 | 8130 
5082 | 8107 
5083 | 8072 
5084 | 8060 
5085 | 8082 
5086 | 8117 
5087 | 8178 
5088 | 8269 
5089 | 8359 
5090 | 8458 
5091 | 8522 
5092 | 8587 
5093 | 8684 
5094 | 8811 
5095 | 8973 
5096 | 9119 
5097 | 9269 
5098 | 9413 
5099 | 9551 
5100 | 9694 
5101 | 9830 
5102 | 9922 
5103 | 9997 
5104 | 10054 
5105 | 10129 
5106 | 10146 
5107 | 10116 
5108 | 10063 
5109 | 9928 
5110 | 9757 
5111 | 9538 
5112 | 9294 
5113 | 9048 
5114 | 8796 
5115 | 8568 
5116 | 8376 
5117 | 8237 
5118 | 8130 
5119 | 8016 
5120 | 7928 
5121 | 7861 
5122 | 7800 
5123 | 7775 
5124 | 7749 
5125 | 7732 
5126 | 7719 
5127 | 7709 
5128 | 7732 
5129 | 7730 
5130 | 7703 
5131 | 7675 
5132 | 7636 
5133 | 7625 
5134 | 7595 
5135 | 7545 
5136 | 7536 
5137 | 7546 
5138 | 7594 
5139 | 7634 
5140 | 7676 
5141 | 7706 
5142 | 7704 
5143 | 7755 
5144 | 7795 
5145 | 7798 
5146 | 7784 
5147 | 7761 
5148 | 7735 
5149 | 7698 
5150 | 7628 
5151 | 7549 
5152 | 7476 
5153 | 7455 
5154 | 7445 
5155 | 7422 
5156 | 7458 
5157 | 7509 
5158 | 7556 
5159 | 7579 
5160 | 7581 
5161 | 7597 
5162 | 7597 
5163 | 7587 
5164 | 7570 
5165 | 7541 
5166 | 7524 
5167 | 7488 
5168 | 7456 
5169 | 7452 
5170 | 7452 
5171 | 7470 
5172 | 7497 
5173 | 7495 
5174 | 7489 
5175 | 7477 
5176 | 7485 
5177 | 7501 
5178 | 7520 
5179 | 7533 
5180 | 7519 
5181 | 7520 
5182 | 7528 
5183 | 7547 
5184 | 7571 
5185 | 7574 
5186 | 7562 
5187 | 7537 
5188 | 7497 
5189 | 7492 
5190 | 7485 
5191 | 7469 
5192 | 7474 
5193 | 7486 
5194 | 7530 
5195 | 7553 
5196 | 7559 
5197 | 7507 
5198 | 7425 
5199 | 7369 
5200 | 7348 
5201 | 7367 
5202 | 7417 
5203 | 7442 
5204 | 7497 
5205 | 7544 
5206 | 7581 
5207 | 7614 
5208 | 7620 
5209 | 7641 
5210 | 7662 
5211 | 7682 
5212 | 7729 
5213 | 7715 
5214 | 7682 
5215 | 7623 
5216 | 7568 
5217 | 7537 
5218 | 7500 
5219 | 7489 
5220 | 7496 
5221 | 7513 
5222 | 7549 
5223 | 7561 
5224 | 7579 
5225 | 7606 
5226 | 7625 
5227 | 7659 
5228 | 7701 
5229 | 7749 
5230 | 7786 
5231 | 7786 
5232 | 7774 
5233 | 7733 
5234 | 7718 
5235 | 7726 
5236 | 7720 
5237 | 7742 
5238 | 7790 
5239 | 7848 
5240 | 7940 
5241 | 8035 
5242 | 8126 
5243 | 8184 
5244 | 8221 
5245 | 8264 
5246 | 8285 
5247 | 8292 
5248 | 8287 
5249 | 8258 
5250 | 8236 
5251 | 8215 
5252 | 8220 
5253 | 8242 
5254 | 8276 
5255 | 8363 
5256 | 8434 
5257 | 8513 
5258 | 8570 
5259 | 8602 
5260 | 8619 
5261 | 8644 
5262 | 8671 
5263 | 8675 
5264 | 8649 
5265 | 8663 
5266 | 8719 
5267 | 8787 
5268 | 8849 
5269 | 8853 
5270 | 8837 
5271 | 8824 
5272 | 8829 
5273 | 8846 
5274 | 8874 
5275 | 8927 
5276 | 8978 
5277 | 8987 
5278 | 9015 
5279 | 9030 
5280 | 9061 
5281 | 9068 
5282 | 9051 
5283 | 9051 
5284 | 9042 
5285 | 9031 
5286 | 9037 
5287 | 9052 
5288 | 9117 
5289 | 9171 
5290 | 9241 
5291 | 9312 
5292 | 9359 
5293 | 9414 
5294 | 9411 
5295 | 9402 
5296 | 9390 
5297 | 9342 
5298 | 9300 
5299 | 9265 
5300 | 9231 
5301 | 9219 
5302 | 9206 
5303 | 9229 
5304 | 9277 
5305 | 9315 
5306 | 9381 
5307 | 9429 
5308 | 9481 
5309 | 9503 
5310 | 9495 
5311 | 9490 
5312 | 9481 
5313 | 9476 
5314 | 9447 
5315 | 9400 
5316 | 9372 
5317 | 9339 
5318 | 9325 
5319 | 9332 
5320 | 9333 
5321 | 9381 
5322 | 9432 
5323 | 9471 
5324 | 9507 
5325 | 9537 
5326 | 9594 
5327 | 9651 
5328 | 9707 
5329 | 9733 
5330 | 9707 
5331 | 9680 
5332 | 9632 
5333 | 9574 
5334 | 9540 
5335 | 9466 
5336 | 9406 
5337 | 9389 
5338 | 9397 
5339 | 9439 
5340 | 9459 
5341 | 9515 
5342 | 9527 
5343 | 9510 
5344 | 9530 
5345 | 9523 
5346 | 9524 
5347 | 9494 
5348 | 9438 
5349 | 9381 
5350 | 9289 
5351 | 9194 
5352 | 9153 
5353 | 9134 
5354 | 9142 
5355 | 9165 
5356 | 9208 
5357 | 9248 
5358 | 9243 
5359 | 9238 
5360 | 9256 
5361 | 9295 
5362 | 9339 
5363 | 9325 
5364 | 9289 
5365 | 9228 
5366 | 9177 
5367 | 9160 
5368 | 9139 
5369 | 9119 
5370 | 9068 
5371 | 9001 
5372 | 8980 
5373 | 8967 
5374 | 8974 
5375 | 8974 
5376 | 8945 
5377 | 8944 
5378 | 8934 
5379 | 8912 
5380 | 8884 
5381 | 8804 
5382 | 8756 
5383 | 8700 
5384 | 8688 
5385 | 8690 
5386 | 8670 
5387 | 8641 
5388 | 8595 
5389 | 8578 
5390 | 8575 
5391 | 8553 
5392 | 8534 
5393 | 8515 
5394 | 8504 
5395 | 8514 
5396 | 8490 
5397 | 8474 
5398 | 8440 
5399 | 8385 
5400 | 8352 
5401 | 8312 
5402 | 8316 
5403 | 8330 
5404 | 8353 
5405 | 8405 
5406 | 8420 
5407 | 8417 
5408 | 8442 
5409 | 8505 
5410 | 8567 
5411 | 8584 
5412 | 8565 
5413 | 8546 
5414 | 8501 
5415 | 8474 
5416 | 8426 
5417 | 8373 
5418 | 8322 
5419 | 8257 
5420 | 8209 
5421 | 8190 
5422 | 8209 
5423 | 8260 
5424 | 8284 
5425 | 8288 
5426 | 8264 
5427 | 8236 
5428 | 8249 
5429 | 8242 
5430 | 8236 
5431 | 8221 
5432 | 8182 
5433 | 8176 
5434 | 8136 
5435 | 8098 
5436 | 8072 
5437 | 8067 
5438 | 8119 
5439 | 8187 
5440 | 8261 
5441 | 8316 
5442 | 8326 
5443 | 8331 
5444 | 8316 
5445 | 8293 
5446 | 8249 
5447 | 8194 
5448 | 8168 
5449 | 8133 
5450 | 8109 
5451 | 8102 
5452 | 8068 
5453 | 8063 
5454 | 8082 
5455 | 8113 
5456 | 8149 
5457 | 8168 
5458 | 8174 
5459 | 8143 
5460 | 8106 
5461 | 8092 
5462 | 8064 
5463 | 8025 
5464 | 7999 
5465 | 7973 
5466 | 8003 
5467 | 8013 
5468 | 8017 
5469 | 8024 
5470 | 8029 
5471 | 8073 
5472 | 8116 
5473 | 8159 
5474 | 8187 
5475 | 8207 
5476 | 8259 
5477 | 8290 
5478 | 8312 
5479 | 8310 
5480 | 8256 
5481 | 8216 
5482 | 8182 
5483 | 8160 
5484 | 8169 
5485 | 8177 
5486 | 8173 
5487 | 8135 
5488 | 8088 
5489 | 8061 
5490 | 8070 
5491 | 8116 
5492 | 8173 
5493 | 8204 
5494 | 8225 
5495 | 8198 
5496 | 8184 
5497 | 8154 
5498 | 8104 
5499 | 8087 
5500 | 8112 
5501 | 8211 
5502 | 8298 
5503 | 8364 
5504 | 8416 
5505 | 8459 
5506 | 8473 
5507 | 8463 
5508 | 8403 
5509 | 8334 
5510 | 8269 
5511 | 8226 
5512 | 8208 
5513 | 8171 
5514 | 8136 
5515 | 8096 
5516 | 8043 
5517 | 7992 
5518 | 7925 
5519 | 7887 
5520 | 7870 
5521 | 7879 
5522 | 7932 
5523 | 8004 
5524 | 8123 
5525 | 8249 
5526 | 8313 
5527 | 8345 
5528 | 8313 
5529 | 8270 
5530 | 8217 
5531 | 8153 
5532 | 8113 
5533 | 8057 
5534 | 8002 
5535 | 7962 
5536 | 7916 
5537 | 7892 
5538 | 7892 
5539 | 7899 
5540 | 7930 
5541 | 7937 
5542 | 7966 
5543 | 7973 
5544 | 7965 
5545 | 7960 
5546 | 7948 
5547 | 7937 
5548 | 7892 
5549 | 7852 
5550 | 7819 
5551 | 7778 
5552 | 7758 
5553 | 7754 
5554 | 7761 
5555 | 7810 
5556 | 7848 
5557 | 7889 
5558 | 7927 
5559 | 7946 
5560 | 7957 
5561 | 7932 
5562 | 7899 
5563 | 7831 
5564 | 7766 
5565 | 7734 
5566 | 7706 
5567 | 7680 
5568 | 7671 
5569 | 7641 
5570 | 7657 
5571 | 7682 
5572 | 7733 
5573 | 7765 
5574 | 7775 
5575 | 7784 
5576 | 7795 
5577 | 7802 
5578 | 7808 
5579 | 7806 
5580 | 7799 
5581 | 7747 
5582 | 7697 
5583 | 7700 
5584 | 7710 
5585 | 7751 
5586 | 7787 
5587 | 7820 
5588 | 7876 
5589 | 7898 
5590 | 7914 
5591 | 7920 
5592 | 7911 
5593 | 7910 
5594 | 7876 
5595 | 7851 
5596 | 7824 
5597 | 7784 
5598 | 7746 
5599 | 7693 
5600 | 7653 
5601 | 7621 
5602 | 7599 
5603 | 7625 
5604 | 7652 
5605 | 7694 
5606 | 7734 
5607 | 7768 
5608 | 7805 
5609 | 7791 
5610 | 7761 
5611 | 7734 
5612 | 7710 
5613 | 7691 
5614 | 7663 
5615 | 7619 
5616 | 7582 
5617 | 7551 
5618 | 7543 
5619 | 7543 
5620 | 7544 
5621 | 7593 
5622 | 7604 
5623 | 7588 
5624 | 7575 
5625 | 7586 
5626 | 7633 
5627 | 7674 
5628 | 7726 
5629 | 7765 
5630 | 7744 
5631 | 7706 
5632 | 7674 
5633 | 7679 
5634 | 7697 
5635 | 7689 
5636 | 7688 
5637 | 7687 
5638 | 7709 
5639 | 7744 
5640 | 7758 
5641 | 7768 
5642 | 7747 
5643 | 7719 
5644 | 7707 
5645 | 7666 
5646 | 7611 
5647 | 7543 
5648 | 7462 
5649 | 7403 
5650 | 7350 
5651 | 7319 
5652 | 7332 
5653 | 7378 
5654 | 7470 
5655 | 7561 
5656 | 7638 
5657 | 7708 
5658 | 7751 
5659 | 7797 
5660 | 7814 
5661 | 7825 
5662 | 7822 
5663 | 7793 
5664 | 7748 
5665 | 7698 
5666 | 7688 
5667 | 7699 
5668 | 7690 
5669 | 7686 
5670 | 7696 
5671 | 7733 
5672 | 7788 
5673 | 7819 
5674 | 7867 
5675 | 7897 
5676 | 7902 
5677 | 7907 
5678 | 7877 
5679 | 7863 
5680 | 7835 
5681 | 7782 
5682 | 7738 
5683 | 7713 
5684 | 7740 
5685 | 7784 
5686 | 7838 
5687 | 7870 
5688 | 7842 
5689 | 7831 
5690 | 7826 
5691 | 7800 
5692 | 7807 
5693 | 7813 
5694 | 7843 
5695 | 7886 
5696 | 7895 
5697 | 7924 
5698 | 7923 
5699 | 7919 
5700 | 7920 
5701 | 7919 
5702 | 7933 
5703 | 7933 
5704 | 7932 
5705 | 7960 
5706 | 7956 
5707 | 7970 
5708 | 7990 
5709 | 8007 
5710 | 8017 
5711 | 7979 
5712 | 7965 
5713 | 7952 
5714 | 7925 
5715 | 7911 
5716 | 7893 
5717 | 7890 
5718 | 7891 
5719 | 7892 
5720 | 7887 
5721 | 7879 
5722 | 7895 
5723 | 7934 
5724 | 7965 
5725 | 7997 
5726 | 7976 
5727 | 7934 
5728 | 7880 
5729 | 7786 
5730 | 7689 
5731 | 7612 
5732 | 7574 
5733 | 7577 
5734 | 7613 
5735 | 7688 
5736 | 7759 
5737 | 7828 
5738 | 7897 
5739 | 7933 
5740 | 7997 
5741 | 8052 
5742 | 8078 
5743 | 8102 
5744 | 8092 
5745 | 8085 
5746 | 8064 
5747 | 8014 
5748 | 7972 
5749 | 7917 
5750 | 7905 
5751 | 7903 
5752 | 7894 
5753 | 7917 
5754 | 7944 
5755 | 7991 
5756 | 8063 
5757 | 8141 
5758 | 8226 
5759 | 8255 
5760 | 8251 
5761 | 8217 
5762 | 8151 
5763 | 8100 
5764 | 8039 
5765 | 7999 
5766 | 7963 
5767 | 7935 
5768 | 7942 
5769 | 7961 
5770 | 8013 
5771 | 8082 
5772 | 8152 
5773 | 8226 
5774 | 8267 
5775 | 8283 
5776 | 8306 
5777 | 8305 
5778 | 8300 
5779 | 8260 
5780 | 8196 
5781 | 8143 
5782 | 8074 
5783 | 8021 
5784 | 8009 
5785 | 7997 
5786 | 8016 
5787 | 8012 
5788 | 8040 
5789 | 8067 
5790 | 8066 
5791 | 8072 
5792 | 8102 
5793 | 8133 
5794 | 8168 
5795 | 8204 
5796 | 8238 
5797 | 8234 
5798 | 8219 
5799 | 8237 
5800 | 8259 
5801 | 8297 
5802 | 8292 
5803 | 8250 
5804 | 8245 
5805 | 8267 
5806 | 8337 
5807 | 8369 
5808 | 8372 
5809 | 8379 
5810 | 8372 
5811 | 8375 
5812 | 8364 
5813 | 8340 
5814 | 8328 
5815 | 8305 
5816 | 8301 
5817 | 8322 
5818 | 8345 
5819 | 8363 
5820 | 8352 
5821 | 8395 
5822 | 8455 
5823 | 8480 
5824 | 8503 
5825 | 8502 
5826 | 8519 
5827 | 8521 
5828 | 8487 
5829 | 8452 
5830 | 8380 
5831 | 8297 
5832 | 8252 
5833 | 8214 
5834 | 8207 
5835 | 8236 
5836 | 8267 
5837 | 8274 
5838 | 8219 
5839 | 8184 
5840 | 8174 
5841 | 8186 
5842 | 8225 
5843 | 8234 
5844 | 8230 
5845 | 8227 
5846 | 8184 
5847 | 8134 
5848 | 8040 
5849 | 7967 
5850 | 7925 
5851 | 7909 
5852 | 7929 
5853 | 7951 
5854 | 7989 
5855 | 8019 
5856 | 8007 
5857 | 8000 
5858 | 7986 
5859 | 7991 
5860 | 8010 
5861 | 8019 
5862 | 8059 
5863 | 8074 
5864 | 8066 
5865 | 8049 
5866 | 8018 
5867 | 8010 
5868 | 8000 
5869 | 7986 
5870 | 7971 
5871 | 7974 
5872 | 8035 
5873 | 8074 
5874 | 8062 
5875 | 8042 
5876 | 8037 
5877 | 8060 
5878 | 8083 
5879 | 8094 
5880 | 8125 
5881 | 8118 
5882 | 8095 
5883 | 8069 
5884 | 8054 
5885 | 8067 
5886 | 8081 
5887 | 8098 
5888 | 8137 
5889 | 8196 
5890 | 8239 
5891 | 8248 
5892 | 8239 
5893 | 8244 
5894 | 8223 
5895 | 8215 
5896 | 8187 
5897 | 8159 
5898 | 8153 
5899 | 8142 
5900 | 8151 
5901 | 8139 
5902 | 8114 
5903 | 8121 
5904 | 8122 
5905 | 8143 
5906 | 8164 
5907 | 8179 
5908 | 8228 
5909 | 8285 
5910 | 8363 
5911 | 8436 
5912 | 8472 
5913 | 8483 
5914 | 8429 
5915 | 8369 
5916 | 8325 
5917 | 8305 
5918 | 8315 
5919 | 8306 
5920 | 8338 
5921 | 8474 
5922 | 8628 
5923 | 8784 
5924 | 8915 
5925 | 9068 
5926 | 9233 
5927 | 9393 
5928 | 9544 
5929 | 9690 
5930 | 9823 
5931 | 9972 
5932 | 10090 
5933 | 10240 
5934 | 10392 
5935 | 10508 
5936 | 10607 
5937 | 10674 
5938 | 10760 
5939 | 10840 
5940 | 10877 
5941 | 10876 
5942 | 10805 
5943 | 10707 
5944 | 10591 
5945 | 10419 
5946 | 10199 
5947 | 9923 
5948 | 9648 
5949 | 9393 
5950 | 9164 
5951 | 9028 
5952 | 8933 
5953 | 8872 
5954 | 8828 
5955 | 8759 
5956 | 8733 
5957 | 8688 
5958 | 8628 
5959 | 8584 
5960 | 8557 
5961 | 8590 
5962 | 8653 
5963 | 8717 
5964 | 8792 
5965 | 8825 
5966 | 8867 
5967 | 8895 
5968 | 8899 
5969 | 8912 
5970 | 8930 
5971 | 8974 
5972 | 9032 
5973 | 9073 
5974 | 9127 
5975 | 9145 
5976 | 9159 
5977 | 9159 
5978 | 9150 
5979 | 9163 
5980 | 9150 
5981 | 9083 
5982 | 9039 
5983 | 8999 
5984 | 8970 
5985 | 8933 
5986 | 8921 
5987 | 8950 
5988 | 8960 
5989 | 8996 
5990 | 9013 
5991 | 9031 
5992 | 9062 
5993 | 9072 
5994 | 9115 
5995 | 9178 
5996 | 9206 
5997 | 9194 
5998 | 9126 
5999 | 9075 
6000 | 9019 
6001 | 8978 
6002 | 9020 
6003 | 9057 
6004 | 9092 
6005 | 9129 
6006 | 9166 
6007 | 9228 
6008 | 9269 
6009 | 9299 
6010 | 9303 
6011 | 9286 
6012 | 9290 
6013 | 9248 
6014 | 9182 
6015 | 9134 
6016 | 9084 
6017 | 9040 
6018 | 8997 
6019 | 8960 
6020 | 8970 
6021 | 8975 
6022 | 9016 
6023 | 9040 
6024 | 9041 
6025 | 9056 
6026 | 9046 
6027 | 9054 
6028 | 9052 
6029 | 9040 
6030 | 9011 
6031 | 8965 
6032 | 8936 
6033 | 8921 
6034 | 8900 
6035 | 8884 
6036 | 8853 
6037 | 8860 
6038 | 8909 
6039 | 8947 
6040 | 8988 
6041 | 9000 
6042 | 9024 
6043 | 9036 
6044 | 9017 
6045 | 8993 
6046 | 8927 
6047 | 8894 
6048 | 8910 
6049 | 8927 
6050 | 8991 
6051 | 9049 
6052 | 9087 
6053 | 9092 
6054 | 9064 
6055 | 9066 
6056 | 9098 
6057 | 9135 
6058 | 9177 
6059 | 9156 
6060 | 9139 
6061 | 9106 
6062 | 9072 
6063 | 9043 
6064 | 8982 
6065 | 8928 
6066 | 8876 
6067 | 8823 
6068 | 8794 
6069 | 8759 
6070 | 8741 
6071 | 8740 
6072 | 8742 
6073 | 8777 
6074 | 8804 
6075 | 8811 
6076 | 8815 
6077 | 8826 
6078 | 8854 
6079 | 8835 
6080 | 8806 
6081 | 8782 
6082 | 8750 
6083 | 8764 
6084 | 8779 
6085 | 8802 
6086 | 8837 
6087 | 8864 
6088 | 8934 
6089 | 8998 
6090 | 9051 
6091 | 9082 
6092 | 9066 
6093 | 9077 
6094 | 9091 
6095 | 9068 
6096 | 9035 
6097 | 8996 
6098 | 8976 
6099 | 8989 
6100 | 8998 
6101 | 9044 
6102 | 9058 
6103 | 9056 
6104 | 9020 
6105 | 8945 
6106 | 8881 
6107 | 8841 
6108 | 8827 
6109 | 8829 
6110 | 8808 
6111 | 8796 
6112 | 8773 
6113 | 8743 
6114 | 8747 
6115 | 8757 
6116 | 8799 
6117 | 8827 
6118 | 8846 
6119 | 8879 
6120 | 8896 
6121 | 8960 
6122 | 9041 
6123 | 9103 
6124 | 9145 
6125 | 9146 
6126 | 9158 
6127 | 9171 
6128 | 9173 
6129 | 9202 
6130 | 9238 
6131 | 9266 
6132 | 9285 
6133 | 9303 
6134 | 9347 
6135 | 9353 
6136 | 9336 
6137 | 9290 
6138 | 9252 
6139 | 9268 
6140 | 9285 
6141 | 9282 
6142 | 9271 
6143 | 9235 
6144 | 9229 
6145 | 9228 
6146 | 9224 
6147 | 9242 
6148 | 9240 
6149 | 9253 
6150 | 9256 
6151 | 9258 
6152 | 9289 
6153 | 9277 
6154 | 9287 
6155 | 9294 
6156 | 9329 
6157 | 9402 
6158 | 9442 
6159 | 9475 
6160 | 9501 
6161 | 9508 
6162 | 9511 
6163 | 9455 
6164 | 9404 
6165 | 9338 
6166 | 9283 
6167 | 9272 
6168 | 9280 
6169 | 9286 
6170 | 9268 
6171 | 9227 
6172 | 9229 
6173 | 9227 
6174 | 9270 
6175 | 9331 
6176 | 9337 
6177 | 9353 
6178 | 9338 
6179 | 9276 
6180 | 9200 
6181 | 9127 
6182 | 9123 
6183 | 9112 
6184 | 9109 
6185 | 9136 
6186 | 9131 
6187 | 9123 
6188 | 9106 
6189 | 9111 
6190 | 9161 
6191 | 9194 
6192 | 9245 
6193 | 9288 
6194 | 9309 
6195 | 9331 
6196 | 9311 
6197 | 9280 
6198 | 9227 
6199 | 9173 
6200 | 9138 
6201 | 9095 
6202 | 9063 
6203 | 9048 
6204 | 9039 
6205 | 9095 
6206 | 9132 
6207 | 9127 
6208 | 9112 
6209 | 9074 
6210 | 9045 
6211 | 9007 
6212 | 8956 
6213 | 8914 
6214 | 8840 
6215 | 8792 
6216 | 8747 
6217 | 8733 
6218 | 8735 
6219 | 8724 
6220 | 8736 
6221 | 8779 
6222 | 8802 
6223 | 8826 
6224 | 8819 
6225 | 8815 
6226 | 8811 
6227 | 8803 
6228 | 8808 
6229 | 8763 
6230 | 8710 
6231 | 8682 
6232 | 8669 
6233 | 8692 
6234 | 8697 
6235 | 8719 
6236 | 8758 
6237 | 8791 
6238 | 8831 
6239 | 8843 
6240 | 8820 
6241 | 8786 
6242 | 8753 
6243 | 8741 
6244 | 8743 
6245 | 8736 
6246 | 8731 
6247 | 8703 
6248 | 8700 
6249 | 8691 
6250 | 8680 
6251 | 8682 
6252 | 8689 
6253 | 8721 
6254 | 8755 
6255 | 8794 
6256 | 8830 
6257 | 8818 
6258 | 8786 
6259 | 8739 
6260 | 8683 
6261 | 8660 
6262 | 8609 
6263 | 8547 
6264 | 8500 
6265 | 8448 
6266 | 8441 
6267 | 8440 
6268 | 8434 
6269 | 8433 
6270 | 8441 
6271 | 8479 
6272 | 8517 
6273 | 8565 
6274 | 8610 
6275 | 8623 
6276 | 8626 
6277 | 8609 
6278 | 8583 
6279 | 8537 
6280 | 8460 
6281 | 8393 
6282 | 8354 
6283 | 8317 
6284 | 8313 
6285 | 8334 
6286 | 8390 
6287 | 8435 
6288 | 8448 
6289 | 8460 
6290 | 8471 
6291 | 8494 
6292 | 8514 
6293 | 8540 
6294 | 8566 
6295 | 8550 
6296 | 8497 
6297 | 8436 
6298 | 8350 
6299 | 8284 
6300 | 8228 
6301 | 8209 
6302 | 8238 
6303 | 8255 
6304 | 8306 
6305 | 8345 
6306 | 8376 
6307 | 8386 
6308 | 8347 
6309 | 8308 
6310 | 8258 
6311 | 8213 
6312 | 8177 
6313 | 8143 
6314 | 8132 
6315 | 8122 
6316 | 8119 
6317 | 8125 
6318 | 8119 
6319 | 8127 
6320 | 8166 
6321 | 8207 
6322 | 8273 
6323 | 8321 
6324 | 8365 
6325 | 8403 
6326 | 8426 
6327 | 8450 
6328 | 8445 
6329 | 8416 
6330 | 8392 
6331 | 8366 
6332 | 8358 
6333 | 8345 
6334 | 8346 
6335 | 8361 
6336 | 8361 
6337 | 8414 
6338 | 8469 
6339 | 8529 
6340 | 8590 
6341 | 8579 
6342 | 8533 
6343 | 8486 
6344 | 8433 
6345 | 8406 
6346 | 8387 
6347 | 8350 
6348 | 8278 
6349 | 8208 
6350 | 8173 
6351 | 8150 
6352 | 8180 
6353 | 8199 
6354 | 8212 
6355 | 8266 
6356 | 8320 
6357 | 8387 
6358 | 8445 
6359 | 8472 
6360 | 8511 
6361 | 8521 
6362 | 8517 
6363 | 8504 
6364 | 8464 
6365 | 8430 
6366 | 8374 
6367 | 8336 
6368 | 8331 
6369 | 8337 
6370 | 8396 
6371 | 8453 
6372 | 8499 
6373 | 8546 
6374 | 8568 
6375 | 8590 
6376 | 8605 
6377 | 8614 
6378 | 8638 
6379 | 8620 
6380 | 8571 
6381 | 8508 
6382 | 8447 
6383 | 8421 
6384 | 8404 
6385 | 8387 
6386 | 8384 
6387 | 8395 
6388 | 8484 
6389 | 8555 
6390 | 8631 
6391 | 8698 
6392 | 8719 
6393 | 8746 
6394 | 8751 
6395 | 8740 
6396 | 8716 
6397 | 8676 
6398 | 8654 
6399 | 8626 
6400 | 8608 
6401 | 8598 
6402 | 8604 
6403 | 8653 
6404 | 8693 
6405 | 8728 
6406 | 8759 
6407 | 8775 
6408 | 8780 
6409 | 8791 
6410 | 8790 
6411 | 8802 
6412 | 8790 
6413 | 8768 
6414 | 8725 
6415 | 8658 
6416 | 8637 
6417 | 8621 
6418 | 8605 
6419 | 8590 
6420 | 8570 
6421 | 8605 
6422 | 8650 
6423 | 8707 
6424 | 8761 
6425 | 8779 
6426 | 8793 
6427 | 8784 
6428 | 8760 
6429 | 8711 
6430 | 8642 
6431 | 8604 
6432 | 8583 
6433 | 8562 
6434 | 8553 
6435 | 8544 
6436 | 8578 
6437 | 8596 
6438 | 8605 
6439 | 8606 
6440 | 8598 
6441 | 8631 
6442 | 8660 
6443 | 8661 
6444 | 8661 
6445 | 8646 
6446 | 8646 
6447 | 8653 
6448 | 8660 
6449 | 8669 
6450 | 8651 
6451 | 8653 
6452 | 8653 
6453 | 8637 
6454 | 8674 
6455 | 8718 
6456 | 8760 
6457 | 8803 
6458 | 8818 
6459 | 8852 
6460 | 8871 
6461 | 8894 
6462 | 8902 
6463 | 8845 
6464 | 8784 
6465 | 8704 
6466 | 8640 
6467 | 8591 
6468 | 8534 
6469 | 8542 
6470 | 8568 
6471 | 8602 
6472 | 8650 
6473 | 8686 
6474 | 8725 
6475 | 8733 
6476 | 8721 
6477 | 8737 
6478 | 8743 
6479 | 8748 
6480 | 8739 
6481 | 8693 
6482 | 8671 
6483 | 8646 
6484 | 8641 
6485 | 8660 
6486 | 8656 
6487 | 8669 
6488 | 8668 
6489 | 8691 
6490 | 8718 
6491 | 8704 
6492 | 8699 
6493 | 8668 
6494 | 8630 
6495 | 8637 
6496 | 8642 
6497 | 8642 
6498 | 8635 
6499 | 8605 
6500 | 8581 
6501 | 8560 
6502 | 8578 
6503 | 8606 
6504 | 8659 
6505 | 8751 
6506 | 8804 
6507 | 8841 
6508 | 8865 
6509 | 8881 
6510 | 8909 
6511 | 8901 
6512 | 8902 
6513 | 8878 
6514 | 8826 
6515 | 8802 
6516 | 8790 
6517 | 8780 
6518 | 8779 
6519 | 8764 
6520 | 8772 
6521 | 8769 
6522 | 8790 
6523 | 8848 
6524 | 8896 
6525 | 8957 
6526 | 8984 
6527 | 8981 
6528 | 8974 
6529 | 8934 
6530 | 8899 
6531 | 8870 
6532 | 8864 
6533 | 8883 
6534 | 8890 
6535 | 8911 
6536 | 8932 
6537 | 8955 
6538 | 9002 
6539 | 9036 
6540 | 9073 
6541 | 9081 
6542 | 9057 
6543 | 9032 
6544 | 8979 
6545 | 8957 
6546 | 8905 
6547 | 8831 
6548 | 8781 
6549 | 8731 
6550 | 8699 
6551 | 8694 
6552 | 8683 
6553 | 8701 
6554 | 8730 
6555 | 8761 
6556 | 8807 
6557 | 8834 
6558 | 8875 
6559 | 8904 
6560 | 8896 
6561 | 8891 
6562 | 8859 
6563 | 8844 
6564 | 8853 
6565 | 8870 
6566 | 8867 
6567 | 8866 
6568 | 8938 
6569 | 9018 
6570 | 9061 
6571 | 9101 
6572 | 9104 
6573 | 9127 
6574 | 9147 
6575 | 9137 
6576 | 9137 
6577 | 9104 
6578 | 9073 
6579 | 9045 
6580 | 9007 
6581 | 8998 
6582 | 8951 
6583 | 8895 
6584 | 8845 
6585 | 8791 
6586 | 8749 
6587 | 8705 
6588 | 8673 
6589 | 8656 
6590 | 8645 
6591 | 8663 
6592 | 8658 
6593 | 8662 
6594 | 8691 
6595 | 8700 
6596 | 8695 
6597 | 8655 
6598 | 8612 
6599 | 8604 
6600 | 8584 
6601 | 8578 
6602 | 8562 
6603 | 8547 
6604 | 8571 
6605 | 8584 
6606 | 8617 
6607 | 8652 
6608 | 8673 
6609 | 8700 
6610 | 8711 
6611 | 8718 
6612 | 8728 
6613 | 8687 
6614 | 8638 
6615 | 8585 
6616 | 8549 
6617 | 8552 
6618 | 8549 
6619 | 8551 
6620 | 8545 
6621 | 8559 
6622 | 8597 
6623 | 8645 
6624 | 8686 
6625 | 8675 
6626 | 8626 
6627 | 8606 
6628 | 8607 
6629 | 8629 
6630 | 8623 
6631 | 8578 
6632 | 8552 
6633 | 8511 
6634 | 8487 
6635 | 8470 
6636 | 8450 
6637 | 8451 
6638 | 8442 
6639 | 8465 
6640 | 8518 
6641 | 8578 
6642 | 8618 
6643 | 8622 
6644 | 8607 
6645 | 8567 
6646 | 8517 
6647 | 8470 
6648 | 8410 
6649 | 8364 
6650 | 8349 
6651 | 8327 
6652 | 8329 
6653 | 8314 
6654 | 8302 
6655 | 8323 
6656 | 8331 
6657 | 8367 
6658 | 8389 
6659 | 8408 
6660 | 8446 
6661 | 8450 
6662 | 8464 
6663 | 8471 
6664 | 8476 
6665 | 8500 
6666 | 8522 
6667 | 8553 
6668 | 8597 
6669 | 8629 
6670 | 8680 
6671 | 8722 
6672 | 8777 
6673 | 8841 
6674 | 8919 
6675 | 9021 
6676 | 9101 
6677 | 9211 
6678 | 9337 
6679 | 9421 
6680 | 9526 
6681 | 9626 
6682 | 9740 
6683 | 9875 
6684 | 9969 
6685 | 10078 
6686 | 10185 
6687 | 10281 
6688 | 10389 
6689 | 10452 
6690 | 10501 
6691 | 10481 
6692 | 10410 
6693 | 10311 
6694 | 10123 
6695 | 9900 
6696 | 9633 
6697 | 9372 
6698 | 9161 
6699 | 8977 
6700 | 8832 
6701 | 8685 
6702 | 8564 
6703 | 8470 
6704 | 8385 
6705 | 8364 
6706 | 8394 
6707 | 8423 
6708 | 8447 
6709 | 8413 
6710 | 8362 
6711 | 8359 
6712 | 8379 
6713 | 8403 
6714 | 8372 
6715 | 8367 
6716 | 8389 
6717 | 8409 
6718 | 8456 
6719 | 8483 
6720 | 8507 
6721 | 8510 
6722 | 8488 
6723 | 8462 
6724 | 8422 
6725 | 8380 
6726 | 8377 
6727 | 8366 
6728 | 8351 
6729 | 8310 
6730 | 8237 
6731 | 8180 
6732 | 8128 
6733 | 8115 
6734 | 8097 
6735 | 8059 
6736 | 8057 
6737 | 8056 
6738 | 8065 
6739 | 8090 
6740 | 8103 
6741 | 8124 
6742 | 8105 
6743 | 8081 
6744 | 8089 
6745 | 8107 
6746 | 8150 
6747 | 8201 
6748 | 8252 
6749 | 8287 
6750 | 8276 
6751 | 8276 
6752 | 8268 
6753 | 8272 
6754 | 8282 
6755 | 8282 
6756 | 8318 
6757 | 8363 
6758 | 8402 
6759 | 8437 
6760 | 8433 
6761 | 8446 
6762 | 8458 
6763 | 8444 
6764 | 8423 
6765 | 8397 
6766 | 8398 
6767 | 8400 
6768 | 8375 
6769 | 8399 
6770 | 8421 
6771 | 8444 
6772 | 8440 
6773 | 8420 
6774 | 8414 
6775 | 8405 
6776 | 8388 
6777 | 8383 
6778 | 8353 
6779 | 8338 
6780 | 8293 
6781 | 8250 
6782 | 8239 
6783 | 8227 
6784 | 8241 
6785 | 8252 
6786 | 8255 
6787 | 8272 
6788 | 8291 
6789 | 8337 
6790 | 8367 
6791 | 8388 
6792 | 8403 
6793 | 8383 
6794 | 8368 
6795 | 8346 
6796 | 8294 
6797 | 8253 
6798 | 8205 
6799 | 8209 
6800 | 8244 
6801 | 8250 
6802 | 8274 
6803 | 8279 
6804 | 8306 
6805 | 8339 
6806 | 8363 
6807 | 8418 
6808 | 8438 
6809 | 8468 
6810 | 8485 
6811 | 8461 
6812 | 8449 
6813 | 8418 
6814 | 8371 
6815 | 8329 
6816 | 8277 
6817 | 8253 
6818 | 8231 
6819 | 8218 
6820 | 8238 
6821 | 8236 
6822 | 8258 
6823 | 8263 
6824 | 8243 
6825 | 8256 
6826 | 8292 
6827 | 8335 
6828 | 8349 
6829 | 8325 
6830 | 8298 
6831 | 8245 
6832 | 8200 
6833 | 8165 
6834 | 8140 
6835 | 8154 
6836 | 8178 
6837 | 8222 
6838 | 8298 
6839 | 8353 
6840 | 8397 
6841 | 8404 
6842 | 8413 
6843 | 8440 
6844 | 8449 
6845 | 8465 
6846 | 8464 
6847 | 8463 
6848 | 8466 
6849 | 8451 
6850 | 8439 
6851 | 8418 
6852 | 8375 
6853 | 8357 
6854 | 8337 
6855 | 8342 
6856 | 8349 
6857 | 8314 
6858 | 8302 
6859 | 8279 
6860 | 8259 
6861 | 8239 
6862 | 8234 
6863 | 8252 
6864 | 8244 
6865 | 8234 
6866 | 8200 
6867 | 8170 
6868 | 8201 
6869 | 8245 
6870 | 8297 
6871 | 8358 
6872 | 8396 
6873 | 8446 
6874 | 8484 
6875 | 8503 
6876 | 8528 
6877 | 8531 
6878 | 8533 
6879 | 8515 
6880 | 8489 
6881 | 8479 
6882 | 8457 
6883 | 8448 
6884 | 8422 
6885 | 8393 
6886 | 8374 
6887 | 8340 
6888 | 8351 
6889 | 8383 
6890 | 8395 
6891 | 8434 
6892 | 8448 
6893 | 8472 
6894 | 8491 
6895 | 8488 
6896 | 8483 
6897 | 8444 
6898 | 8407 
6899 | 8378 
6900 | 8355 
6901 | 8345 
6902 | 8347 
6903 | 8360 
6904 | 8379 
6905 | 8391 
6906 | 8430 
6907 | 8458 
6908 | 8471 
6909 | 8494 
6910 | 8530 
6911 | 8588 
6912 | 8620 
6913 | 8595 
6914 | 8572 
6915 | 8516 
6916 | 8489 
6917 | 8458 
6918 | 8448 
6919 | 8468 
6920 | 8467 
6921 | 8488 
6922 | 8547 
6923 | 8566 
6924 | 8552 
6925 | 8491 
6926 | 8456 
6927 | 8455 
6928 | 8444 
6929 | 8425 
6930 | 8396 
6931 | 8375 
6932 | 8394 
6933 | 8375 
6934 | 8345 
6935 | 8297 
6936 | 8271 
6937 | 8279 
6938 | 8293 
6939 | 8352 
6940 | 8426 
6941 | 8498 
6942 | 8557 
6943 | 8579 
6944 | 8604 
6945 | 8593 
6946 | 8557 
6947 | 8505 
6948 | 8438 
6949 | 8406 
6950 | 8381 
6951 | 8353 
6952 | 8328 
6953 | 8294 
6954 | 8281 
6955 | 8291 
6956 | 8296 
6957 | 8313 
6958 | 8312 
6959 | 8298 
6960 | 8275 
6961 | 8208 
6962 | 8139 
6963 | 8058 
6964 | 7981 
6965 | 7926 
6966 | 7857 
6967 | 7827 
6968 | 7802 
6969 | 7786 
6970 | 7785 
6971 | 7793 
6972 | 7833 
6973 | 7878 
6974 | 7922 
6975 | 7971 
6976 | 7986 
6977 | 7985 
6978 | 7958 
6979 | 7928 
6980 | 7957 
6981 | 7977 
6982 | 7987 
6983 | 7973 
6984 | 7889 
6985 | 7793 
6986 | 7694 
6987 | 7652 
6988 | 7633 
6989 | 7635 
6990 | 7672 
6991 | 7701 
6992 | 7709 
6993 | 7722 
6994 | 7721 
6995 | 7735 
6996 | 7734 
6997 | 7754 
6998 | 7793 
6999 | 7799 
7000 | 7810 
7001 | 7814 
7002 | 7805 
7003 | 7821 
7004 | 7831 
7005 | 7873 
7006 | 7917 
7007 | 7958 
7008 | 7998 
7009 | 7980 
7010 | 7946 
7011 | 7916 
7012 | 7893 
7013 | 7857 
7014 | 7792 
7015 | 7733 
7016 | 7690 
7017 | 7635 
7018 | 7588 
7019 | 7534 
7020 | 7489 
7021 | 7453 
7022 | 7422 
7023 | 7459 
7024 | 7543 
7025 | 7660 
7026 | 7745 
7027 | 7769 
7028 | 7808 
7029 | 7810 
7030 | 7784 
7031 | 7760 
7032 | 7738 
7033 | 7724 
7034 | 7702 
7035 | 7705 
7036 | 7744 
7037 | 7785 
7038 | 7849 
7039 | 7886 
7040 | 7879 
7041 | 7861 
7042 | 7808 
7043 | 7775 
7044 | 7769 
7045 | 7743 
7046 | 7713 
7047 | 7670 
7048 | 7631 
7049 | 7584 
7050 | 7535 
7051 | 7516 
7052 | 7503 
7053 | 7496 
7054 | 7514 
7055 | 7555 
7056 | 7651 
7057 | 7709 
7058 | 7732 
7059 | 7737 
7060 | 7721 
7061 | 7734 
7062 | 7728 
7063 | 7713 
7064 | 7713 
7065 | 7706 
7066 | 7724 
7067 | 7739 
7068 | 7746 
7069 | 7744 
7070 | 7740 
7071 | 7766 
7072 | 7788 
7073 | 7779 
7074 | 7769 
7075 | 7755 
7076 | 7744 
7077 | 7736 
7078 | 7733 
7079 | 7750 
7080 | 7745 
7081 | 7748 
7082 | 7724 
7083 | 7697 
7084 | 7701 
7085 | 7683 
7086 | 7667 
7087 | 7672 
7088 | 7692 
7089 | 7732 
7090 | 7743 
7091 | 7738 
7092 | 7730 
7093 | 7705 
7094 | 7691 
7095 | 7654 
7096 | 7594 
7097 | 7540 
7098 | 7482 
7099 | 7461 
7100 | 7464 
7101 | 7482 
7102 | 7489 
7103 | 7466 
7104 | 7470 
7105 | 7492 
7106 | 7539 
7107 | 7585 
7108 | 7614 
7109 | 7640 
7110 | 7650 
7111 | 7656 
7112 | 7671 
7113 | 7631 
7114 | 7563 
7115 | 7480 
7116 | 7401 
7117 | 7372 
7118 | 7348 
7119 | 7337 
7120 | 7356 
7121 | 7404 
7122 | 7479 
7123 | 7545 
7124 | 7586 
7125 | 7611 
7126 | 7627 
7127 | 7621 
7128 | 7595 
7129 | 7537 
7130 | 7465 
7131 | 7397 
7132 | 7352 
7133 | 7324 
7134 | 7299 
7135 | 7266 
7136 | 7246 
7137 | 7266 
7138 | 7313 
7139 | 7361 
7140 | 7412 
7141 | 7455 
7142 | 7490 
7143 | 7492 
7144 | 7454 
7145 | 7432 
7146 | 7397 
7147 | 7363 
7148 | 7327 
7149 | 7296 
7150 | 7309 
7151 | 7323 
7152 | 7321 
7153 | 7329 
7154 | 7324 
7155 | 7351 
7156 | 7400 
7157 | 7467 
7158 | 7500 
7159 | 7500 
7160 | 7501 
7161 | 7507 
7162 | 7494 
7163 | 7459 
7164 | 7390 
7165 | 7345 
7166 | 7307 
7167 | 7267 
7168 | 7266 
7169 | 7260 
7170 | 7265 
7171 | 7281 
7172 | 7288 
7173 | 7317 
7174 | 7324 
7175 | 7319 
7176 | 7299 
7177 | 7260 
7178 | 7257 
7179 | 7236 
7180 | 7204 
7181 | 7147 
7182 | 7111 
7183 | 7118 
7184 | 7132 
7185 | 7166 
7186 | 7218 
7187 | 7270 
7188 | 7343 
7189 | 7384 
7190 | 7424 
7191 | 7453 
7192 | 7441 
7193 | 7430 
7194 | 7403 
7195 | 7372 
7196 | 7343 
7197 | 7268 
7198 | 7211 
7199 | 7185 
7200 | 7187 
7201 | 7214 
7202 | 7235 
7203 | 7272 
7204 | 7344 
7205 | 7412 
7206 | 7457 
7207 | 7449 
7208 | 7440 
7209 | 7435 
7210 | 7405 
7211 | 7392 
7212 | 7366 
7213 | 7342 
7214 | 7295 
7215 | 7240 
7216 | 7221 
7217 | 7207 
7218 | 7190 
7219 | 7153 
7220 | 7104 
7221 | 7110 
7222 | 7139 
7223 | 7159 
7224 | 7210 
7225 | 7239 
7226 | 7272 
7227 | 7259 
7228 | 7219 
7229 | 7170 
7230 | 7105 
7231 | 7056 
7232 | 6994 
7233 | 6934 
7234 | 6914 
7235 | 6901 
7236 | 6891 
7237 | 6894 
7238 | 6900 
7239 | 6900 
7240 | 6912 
7241 | 6938 
7242 | 6965 
7243 | 6978 
7244 | 7013 
7245 | 7027 
7246 | 7020 
7247 | 6997 
7248 | 6960 
7249 | 6946 
7250 | 6926 
7251 | 6928 
7252 | 6938 
7253 | 6965 
7254 | 7013 
7255 | 7021 
7256 | 7014 
7257 | 7019 
7258 | 7019 
7259 | 7033 
7260 | 7045 
7261 | 7082 
7262 | 7115 
7263 | 7086 
7264 | 7049 
7265 | 6988 
7266 | 6933 
7267 | 6919 
7268 | 6903 
7269 | 6919 
7270 | 6947 
7271 | 6992 
7272 | 7027 
7273 | 7044 
7274 | 7058 
7275 | 7081 
7276 | 7102 
7277 | 7119 
7278 | 7107 
7279 | 7063 
7280 | 7004 
7281 | 6930 
7282 | 6895 
7283 | 6869 
7284 | 6828 
7285 | 6797 
7286 | 6774 
7287 | 6793 
7288 | 6828 
7289 | 6884 
7290 | 6961 
7291 | 6995 
7292 | 6991 
7293 | 7003 
7294 | 7019 
7295 | 7031 
7296 | 7002 
7297 | 6959 
7298 | 6926 
7299 | 6876 
7300 | 6841 
7301 | 6785 
7302 | 6748 
7303 | 6726 
7304 | 6717 
7305 | 6736 
7306 | 6746 
7307 | 6773 
7308 | 6797 
7309 | 6804 
7310 | 6838 
7311 | 6866 
7312 | 6862 
7313 | 6840 
7314 | 6786 
7315 | 6762 
7316 | 6742 
7317 | 6733 
7318 | 6743 
7319 | 6735 
7320 | 6744 
7321 | 6759 
7322 | 6763 
7323 | 6784 
7324 | 6796 
7325 | 6841 
7326 | 6862 
7327 | 6869 
7328 | 6900 
7329 | 6907 
7330 | 6904 
7331 | 6886 
7332 | 6843 
7333 | 6867 
7334 | 6878 
7335 | 6882 
7336 | 6885 
7337 | 6915 
7338 | 6993 
7339 | 7036 
7340 | 7017 
7341 | 6970 
7342 | 6950 
7343 | 6960 
7344 | 6969 
7345 | 6982 
7346 | 6974 
7347 | 6954 
7348 | 6940 
7349 | 6913 
7350 | 6881 
7351 | 6856 
7352 | 6804 
7353 | 6774 
7354 | 6760 
7355 | 6763 
7356 | 6794 
7357 | 6802 
7358 | 6822 
7359 | 6823 
7360 | 6819 
7361 | 6816 
7362 | 6784 
7363 | 6746 
7364 | 6713 
7365 | 6698 
7366 | 6703 
7367 | 6716 
7368 | 6719 
7369 | 6712 
7370 | 6721 
7371 | 6773 
7372 | 6836 
7373 | 6912 
7374 | 6981 
7375 | 7021 
7376 | 7077 
7377 | 7123 
7378 | 7147 
7379 | 7127 
7380 | 7048 
7381 | 6958 
7382 | 6888 
7383 | 6840 
7384 | 6797 
7385 | 6747 
7386 | 6719 
7387 | 6700 
7388 | 6692 
7389 | 6695 
7390 | 6711 
7391 | 6750 
7392 | 6782 
7393 | 6787 
7394 | 6804 
7395 | 6791 
7396 | 6777 
7397 | 6746 
7398 | 6703 
7399 | 6706 
7400 | 6727 
7401 | 6728 
7402 | 6698 
7403 | 6653 
7404 | 6627 
7405 | 6600 
7406 | 6566 
7407 | 6548 
7408 | 6540 
7409 | 6572 
7410 | 6587 
7411 | 6583 
7412 | 6578 
7413 | 6549 
7414 | 6549 
7415 | 6544 
7416 | 6592 
7417 | 6671 
7418 | 6733 
7419 | 6779 
7420 | 6783 
7421 | 6774 
7422 | 6805 
7423 | 6833 
7424 | 6861 
7425 | 6853 
7426 | 6806 
7427 | 6762 
7428 | 6722 
7429 | 6683 
7430 | 6652 
7431 | 6627 
7432 | 6627 
7433 | 6624 
7434 | 6629 
7435 | 6639 
7436 | 6657 
7437 | 6687 
7438 | 6699 
7439 | 6717 
7440 | 6746 
7441 | 6757 
7442 | 6777 
7443 | 6784 
7444 | 6785 
7445 | 6797 
7446 | 6779 
7447 | 6751 
7448 | 6707 
7449 | 6668 
7450 | 6650 
7451 | 6639 
7452 | 6652 
7453 | 6645 
7454 | 6647 
7455 | 6653 
7456 | 6646 
7457 | 6652 
7458 | 6653 
7459 | 6630 
7460 | 6609 
7461 | 6592 
7462 | 6589 
7463 | 6580 
7464 | 6575 
7465 | 6607 
7466 | 6633 
7467 | 6693 
7468 | 6780 
7469 | 6880 
7470 | 6996 
7471 | 7101 
7472 | 7211 
7473 | 7369 
7474 | 7539 
7475 | 7759 
7476 | 7997 
7477 | 8212 
7478 | 8399 
7479 | 8579 
7480 | 8744 
7481 | 8883 
7482 | 8980 
7483 | 9069 
7484 | 9114 
7485 | 9179 
7486 | 9228 
7487 | 9250 
7488 | 9286 
7489 | 9277 
7490 | 9250 
7491 | 9162 
7492 | 9012 
7493 | 8815 
7494 | 8526 
7495 | 8211 
7496 | 7917 
7497 | 7660 
7498 | 7431 
7499 | 7244 
7500 | 7100 
7501 | 6950 
7502 | 6824 
7503 | 6740 
7504 | 6691 
7505 | 6657 
7506 | 6646 
7507 | 6654 
7508 | 6685 
7509 | 6720 
7510 | 6762 
7511 | 6796 
7512 | 6801 
7513 | 6802 
7514 | 6806 
7515 | 6801 
7516 | 6788 
7517 | 6748 
7518 | 6708 
7519 | 6665 
7520 | 6610 
7521 | 6583 
7522 | 6560 
7523 | 6587 
7524 | 6659 
7525 | 6705 
7526 | 6765 
7527 | 6823 
7528 | 6887 
7529 | 6937 
7530 | 6947 
7531 | 6938 
7532 | 6900 
7533 | 6884 
7534 | 6866 
7535 | 6817 
7536 | 6789 
7537 | 6766 
7538 | 6779 
7539 | 6810 
7540 | 6824 
7541 | 6856 
7542 | 6848 
7543 | 6823 
7544 | 6799 
7545 | 6761 
7546 | 6717 
7547 | 6651 
7548 | 6583 
7549 | 6562 
7550 | 6549 
7551 | 6567 
7552 | 6607 
7553 | 6635 
7554 | 6673 
7555 | 6707 
7556 | 6731 
7557 | 6754 
7558 | 6764 
7559 | 6790 
7560 | 6821 
7561 | 6863 
7562 | 6845 
7563 | 6790 
7564 | 6734 
7565 | 6675 
7566 | 6674 
7567 | 6694 
7568 | 6688 
7569 | 6712 
7570 | 6760 
7571 | 6841 
7572 | 6943 
7573 | 7021 
7574 | 7061 
7575 | 7088 
7576 | 7093 
7577 | 7088 
7578 | 7076 
7579 | 7073 
7580 | 7037 
7581 | 6996 
7582 | 6968 
7583 | 6919 
7584 | 6884 
7585 | 6843 
7586 | 6801 
7587 | 6794 
7588 | 6806 
7589 | 6855 
7590 | 6920 
7591 | 6997 
7592 | 7065 
7593 | 7119 
7594 | 7146 
7595 | 7150 
7596 | 7104 
7597 | 7040 
7598 | 6938 
7599 | 6813 
7600 | 6702 
7601 | 6615 
7602 | 6602 
7603 | 6630 
7604 | 6702 
7605 | 6778 
7606 | 6825 
7607 | 6858 
7608 | 6869 
7609 | 6878 
7610 | 6918 
7611 | 6935 
7612 | 6915 
7613 | 6864 
7614 | 6793 
7615 | 6743 
7616 | 6678 
7617 | 6626 
7618 | 6603 
7619 | 6601 
7620 | 6641 
7621 | 6705 
7622 | 6784 
7623 | 6861 
7624 | 6930 
7625 | 7022 
7626 | 7078 
7627 | 7094 
7628 | 7077 
7629 | 7025 
7630 | 6970 
7631 | 6895 
7632 | 6855 
7633 | 6838 
7634 | 6818 
7635 | 6818 
7636 | 6804 
7637 | 6789 
7638 | 6779 
7639 | 6754 
7640 | 6741 
7641 | 6740 
7642 | 6758 
7643 | 6787 
7644 | 6789 
7645 | 6799 
7646 | 6783 
7647 | 6745 
7648 | 6712 
7649 | 6680 
7650 | 6678 
7651 | 6669 
7652 | 6648 
7653 | 6668 
7654 | 6677 
7655 | 6704 
7656 | 6742 
7657 | 6769 
7658 | 6789 
7659 | 6791 
7660 | 6775 
7661 | 6767 
7662 | 6748 
7663 | 6738 
7664 | 6732 
7665 | 6766 
7666 | 6801 
7667 | 6809 
7668 | 6801 
7669 | 6775 
7670 | 6780 
7671 | 6858 
7672 | 6904 
7673 | 6935 
7674 | 6961 
7675 | 6988 
7676 | 7002 
7677 | 6940 
7678 | 6851 
7679 | 6763 
7680 | 6692 
7681 | 6638 
7682 | 6604 
7683 | 6598 
7684 | 6616 
7685 | 6611 
7686 | 6596 
7687 | 6577 
7688 | 6607 
7689 | 6653 
7690 | 6683 
7691 | 6706 
7692 | 6705 
7693 | 6716 
7694 | 6732 
7695 | 6743 
7696 | 6751 
7697 | 6728 
7698 | 6712 
7699 | 6736 
7700 | 6761 
7701 | 6798 
7702 | 6809 
7703 | 6807 
7704 | 6813 
7705 | 6799 
7706 | 6811 
7707 | 6823 
7708 | 6842 
7709 | 6902 
7710 | 6940 
7711 | 6970 
7712 | 6978 
7713 | 6946 
7714 | 6917 
7715 | 6882 
7716 | 6848 
7717 | 6789 
7718 | 6731 
7719 | 6703 
7720 | 6687 
7721 | 6703 
7722 | 6756 
7723 | 6795 
7724 | 6837 
7725 | 6851 
7726 | 6878 
7727 | 6931 
7728 | 6934 
7729 | 6914 
7730 | 6866 
7731 | 6810 
7732 | 6782 
7733 | 6783 
7734 | 6808 
7735 | 6809 
7736 | 6785 
7737 | 6772 
7738 | 6752 
7739 | 6762 
7740 | 6768 
7741 | 6769 
7742 | 6786 
7743 | 6786 
7744 | 6789 
7745 | 6786 
7746 | 6781 
7747 | 6792 
7748 | 6770 
7749 | 6747 
7750 | 6725 
7751 | 6676 
7752 | 6641 
7753 | 6616 
7754 | 6631 
7755 | 6648 
7756 | 6645 
7757 | 6628 
7758 | 6607 
7759 | 6593 
7760 | 6582 
7761 | 6526 
7762 | 6476 
7763 | 6409 
7764 | 6345 
7765 | 6312 
7766 | 6301 
7767 | 6307 
7768 | 6301 
7769 | 6276 
7770 | 6255 
7771 | 6255 
7772 | 6272 
7773 | 6303 
7774 | 6339 
7775 | 6373 
7776 | 6385 
7777 | 6409 
7778 | 6424 
7779 | 6393 
7780 | 6370 
7781 | 6317 
7782 | 6279 
7783 | 6249 
7784 | 6231 
7785 | 6240 
7786 | 6226 
7787 | 6222 
7788 | 6232 
7789 | 6229 
7790 | 6249 
7791 | 6261 
7792 | 6250 
7793 | 6228 
7794 | 6205 
7795 | 6192 
7796 | 6163 
7797 | 6091 
7798 | 6021 
7799 | 5963 
7800 | 5945 
7801 | 5949 
7802 | 5961 
7803 | 5965 
7804 | 5954 
7805 | 5940 
7806 | 5924 
7807 | 5924 
7808 | 5961 
7809 | 5983 
7810 | 5995 
7811 | 5979 
7812 | 5929 
7813 | 5901 
7814 | 5875 
7815 | 5844 
7816 | 5834 
7817 | 5823 
7818 | 5817 
7819 | 5788 
7820 | 5766 
7821 | 5783 
7822 | 5813 
7823 | 5877 
7824 | 5945 
7825 | 6001 
7826 | 6031 
7827 | 6021 
7828 | 5989 
7829 | 5928 
7830 | 5849 
7831 | 5760 
7832 | 5633 
7833 | 5531 
7834 | 5453 
7835 | 5425 
7836 | 5423 
7837 | 5415 
7838 | 5459 
7839 | 5540 
7840 | 5630 
7841 | 5731 
7842 | 5791 
7843 | 5816 
7844 | 5808 
7845 | 5785 
7846 | 5777 
7847 | 5742 
7848 | 5686 
7849 | 5648 
7850 | 5615 
7851 | 5598 
7852 | 5581 
7853 | 5586 
7854 | 5607 
7855 | 5633 
7856 | 5662 
7857 | 5675 
7858 | 5673 
7859 | 5674 
7860 | 5666 
7861 | 5674 
7862 | 5659 
7863 | 5640 
7864 | 5614 
7865 | 5573 
7866 | 5564 
7867 | 5573 
7868 | 5576 
7869 | 5583 
7870 | 5575 
7871 | 5571 
7872 | 5568 
7873 | 5552 
7874 | 5571 
7875 | 5581 
7876 | 5606 
7877 | 5658 
7878 | 5690 
7879 | 5724 
7880 | 5732 
7881 | 5737 
7882 | 5755 
7883 | 5771 
7884 | 5765 
7885 | 5709 
7886 | 5652 
7887 | 5629 
7888 | 5626 
7889 | 5628 
7890 | 5642 
7891 | 5663 
7892 | 5692 
7893 | 5692 
7894 | 5711 
7895 | 5729 
7896 | 5732 
7897 | 5724 
7898 | 5676 
7899 | 5634 
7900 | 5600 
7901 | 5566 
7902 | 5532 
7903 | 5480 
7904 | 5464 
7905 | 5479 
7906 | 5519 
7907 | 5579 
7908 | 5623 
7909 | 5667 
7910 | 5690 
7911 | 5659 
7912 | 5576 
7913 | 5467 
7914 | 5367 
7915 | 5299 
7916 | 5250 
7917 | 5244 
7918 | 5272 
7919 | 5332 
7920 | 5416 
7921 | 5469 
7922 | 5500 
7923 | 5542 
7924 | 5558 
7925 | 5556 
7926 | 5523 
7927 | 5492 
7928 | 5489 
7929 | 5492 
7930 | 5473 
7931 | 5417 
7932 | 5408 
7933 | 5434 
7934 | 5466 
7935 | 5509 
7936 | 5525 
7937 | 5536 
7938 | 5544 
7939 | 5545 
7940 | 5565 
7941 | 5607 
7942 | 5637 
7943 | 5616 
7944 | 5572 
7945 | 5541 
7946 | 5484 
7947 | 5427 
7948 | 5374 
7949 | 5329 
7950 | 5318 
7951 | 5322 
7952 | 5348 
7953 | 5364 
7954 | 5358 
7955 | 5364 
7956 | 5373 
7957 | 5350 
7958 | 5332 
7959 | 5330 
7960 | 5348 
7961 | 5354 
7962 | 5327 
7963 | 5280 
7964 | 5215 
7965 | 5199 
7966 | 5197 
7967 | 5189 
7968 | 5192 
7969 | 5205 
7970 | 5245 
7971 | 5304 
7972 | 5364 
7973 | 5432 
7974 | 5497 
7975 | 5528 
7976 | 5533 
7977 | 5490 
7978 | 5421 
7979 | 5327 
7980 | 5260 
7981 | 5223 
7982 | 5189 
7983 | 5184 
7984 | 5182 
7985 | 5201 
7986 | 5226 
7987 | 5219 
7988 | 5203 
7989 | 5184 
7990 | 5184 
7991 | 5208 
7992 | 5219 
7993 | 5223 
7994 | 5207 
7995 | 5176 
7996 | 5149 
7997 | 5113 
7998 | 5073 
7999 | 5042 
8000 | 5006 
8001 | 4987 
8002 | 4960 
8003 | 4970 
8004 | 5035 
8005 | 5120 
8006 | 5212 
8007 | 5271 
8008 | 5306 
8009 | 5315 
8010 | 5300 
8011 | 5292 
8012 | 5269 
8013 | 5241 
8014 | 5196 
8015 | 5144 
8016 | 5108 
8017 | 5072 
8018 | 5055 
8019 | 5087 
8020 | 5118 
8021 | 5154 
8022 | 5182 
8023 | 5210 
8024 | 5224 
8025 | 5226 
8026 | 5226 
8027 | 5211 
8028 | 5190 
8029 | 5169 
8030 | 5128 
8031 | 5073 
8032 | 5030 
8033 | 5030 
8034 | 5050 
8035 | 5075 
8036 | 5091 
8037 | 5080 
8038 | 5052 
8039 | 5078 
8040 | 5087 
8041 | 5103 
8042 | 5100 
8043 | 5129 
8044 | 5192 
8045 | 5222 
8046 | 5230 
8047 | 5238 
8048 | 5241 
8049 | 5266 
8050 | 5274 
8051 | 5269 
8052 | 5261 
8053 | 5257 
8054 | 5273 
8055 | 5311 
8056 | 5343 
8057 | 5372 
8058 | 5368 
8059 | 5357 
8060 | 5314 
8061 | 5262 
8062 | 5234 
8063 | 5198 
8064 | 5178 
8065 | 5164 
8066 | 5166 
8067 | 5185 
8068 | 5195 
8069 | 5201 
8070 | 5229 
8071 | 5281 
8072 | 5351 
8073 | 5398 
8074 | 5407 
8075 | 5414 
8076 | 5394 
8077 | 5359 
8078 | 5314 
8079 | 5271 
8080 | 5253 
8081 | 5227 
8082 | 5207 
8083 | 5169 
8084 | 5123 
8085 | 5085 
8086 | 5060 
8087 | 5066 
8088 | 5108 
8089 | 5141 
8090 | 5187 
8091 | 5197 
8092 | 5199 
8093 | 5199 
8094 | 5182 
8095 | 5163 
8096 | 5149 
8097 | 5148 
8098 | 5181 
8099 | 5202 
8100 | 5223 
8101 | 5244 
8102 | 5272 
8103 | 5289 
8104 | 5277 
8105 | 5264 
8106 | 5249 
8107 | 5231 
8108 | 5228 
8109 | 5228 
8110 | 5238 
8111 | 5257 
8112 | 5249 
8113 | 5242 
8114 | 5240 
8115 | 5234 
8116 | 5232 
8117 | 5218 
8118 | 5206 
8119 | 5182 
8120 | 5152 
8121 | 5172 
8122 | 5225 
8123 | 5280 
8124 | 5301 
8125 | 5321 
8126 | 5335 
8127 | 5355 
8128 | 5388 
8129 | 5398 
8130 | 5395 
8131 | 5361 
8132 | 5329 
8133 | 5314 
8134 | 5282 
8135 | 5238 
8136 | 5216 
8137 | 5229 
8138 | 5238 
8139 | 5228 
8140 | 5238 
8141 | 5264 
8142 | 5266 
8143 | 5259 
8144 | 5250 
8145 | 5252 
8146 | 5257 
8147 | 5249 
8148 | 5261 
8149 | 5265 
8150 | 5264 
8151 | 5301 
8152 | 5322 
8153 | 5357 
8154 | 5373 
8155 | 5391 
8156 | 5448 
8157 | 5498 
8158 | 5527 
8159 | 5532 
8160 | 5519 
8161 | 5498 
8162 | 5441 
8163 | 5369 
8164 | 5289 
8165 | 5198 
8166 | 5158 
8167 | 5133 
8168 | 5139 
8169 | 5161 
8170 | 5145 
8171 | 5132 
8172 | 5088 
8173 | 5039 
8174 | 4997 
8175 | 4959 
8176 | 4921 
8177 | 4868 
8178 | 4822 
8179 | 4781 
8180 | 4753 
8181 | 4749 
8182 | 4756 
8183 | 4769 
8184 | 4779 
8185 | 4766 
8186 | 4745 
8187 | 4740 
8188 | 4772 
8189 | 4832 
8190 | 4869 
8191 | 4903 
8192 | 4928 
8193 | 4942 
8194 | 4978 
8195 | 4985 
8196 | 4968 
8197 | 4930 
8198 | 4888 
8199 | 4852 
8200 | 4809 
8201 | 4788 
8202 | 4795 
8203 | 4800 
8204 | 4837 
8205 | 4868 
8206 | 4880 
8207 | 4892 
8208 | 4897 
8209 | 4908 
8210 | 4905 
8211 | 4881 
8212 | 4860 
8213 | 4842 
8214 | 4867 
8215 | 4911 
8216 | 4958 
8217 | 4999 
8218 | 5010 
8219 | 5000 
8220 | 4960 
8221 | 4918 
8222 | 4913 
8223 | 4913 
8224 | 4925 
8225 | 4925 
8226 | 4909 
8227 | 4922 
8228 | 4923 
8229 | 4896 
8230 | 4835 
8231 | 4760 
8232 | 4726 
8233 | 4714 
8234 | 4734 
8235 | 4774 
8236 | 4814 
8237 | 4876 
8238 | 4948 
8239 | 4995 
8240 | 5027 
8241 | 5018 
8242 | 4991 
8243 | 4955 
8244 | 4914 
8245 | 4885 
8246 | 4855 
8247 | 4861 
8248 | 4895 
8249 | 4974 
8250 | 5054 
8251 | 5090 
8252 | 5141 
8253 | 5250 
8254 | 5416 
8255 | 5637 
8256 | 5865 
8257 | 6097 
8258 | 6298 
8259 | 6454 
8260 | 6612 
8261 | 6774 
8262 | 6908 
8263 | 7020 
8264 | 7063 
8265 | 7114 
8266 | 7160 
8267 | 7207 
8268 | 7242 
8269 | 7220 
8270 | 7179 
8271 | 7099 
8272 | 6965 
8273 | 6789 
8274 | 6585 
8275 | 6362 
8276 | 6132 
8277 | 5890 
8278 | 5666 
8279 | 5453 
8280 | 5244 
8281 | 5002 
8282 | 4781 
8283 | 4596 
8284 | 4460 
8285 | 4430 
8286 | 4463 
8287 | 4542 
8288 | 4663 
8289 | 4797 
8290 | 4913 
8291 | 5005 
8292 | 5039 
8293 | 5060 
8294 | 5062 
8295 | 5060 
8296 | 5044 
8297 | 4995 
8298 | 4929 
8299 | 4872 
8300 | 4824 
8301 | 4775 
8302 | 4737 
8303 | 4731 
8304 | 4761 
8305 | 4823 
8306 | 4887 
8307 | 4916 
8308 | 4934 
8309 | 4952 
8310 | 4965 
8311 | 4987 
8312 | 5006 
8313 | 5015 
8314 | 5012 
8315 | 5002 
8316 | 4991 
8317 | 4960 
8318 | 4936 
8319 | 4920 
8320 | 4918 
8321 | 4953 
8322 | 4987 
8323 | 5027 
8324 | 5050 
8325 | 5060 
8326 | 5076 
8327 | 5096 
8328 | 5077 
8329 | 5040 
8330 | 5008 
8331 | 4985 
8332 | 4935 
8333 | 4884 
8334 | 4858 
8335 | 4878 
8336 | 4937 
8337 | 5007 
8338 | 5079 
8339 | 5171 
8340 | 5241 
8341 | 5313 
8342 | 5357 
8343 | 5370 
8344 | 5383 
8345 | 5390 
8346 | 5394 
8347 | 5386 
8348 | 5360 
8349 | 5344 
8350 | 5342 
8351 | 5366 
8352 | 5399 
8353 | 5419 
8354 | 5442 
8355 | 5455 
8356 | 5477 
8357 | 5514 
8358 | 5537 
8359 | 5556 
8360 | 5559 
8361 | 5547 
8362 | 5520 
8363 | 5458 
8364 | 5420 
8365 | 5405 
8366 | 5431 
8367 | 5449 
8368 | 5442 
8369 | 5434 
8370 | 5450 
8371 | 5494 
8372 | 5591 
8373 | 5664 
8374 | 5712 
8375 | 5745 
8376 | 5761 
8377 | 5764 
8378 | 5730 
8379 | 5685 
8380 | 5656 
8381 | 5632 
8382 | 5647 
8383 | 5652 
8384 | 5662 
8385 | 5647 
8386 | 5602 
8387 | 5545 
8388 | 5482 
8389 | 5447 
8390 | 5507 
8391 | 5576 
8392 | 5646 
8393 | 5686 
8394 | 5716 
8395 | 5750 
8396 | 5726 
8397 | 5686 
8398 | 5633 
8399 | 5604 
8400 | 5600 
8401 | 5606 
8402 | 5639 
8403 | 5690 
8404 | 5749 
8405 | 5812 
8406 | 5864 
8407 | 5898 
8408 | 5916 
8409 | 5900 
8410 | 5891 
8411 | 5854 
8412 | 5822 
8413 | 5804 
8414 | 5772 
8415 | 5744 
8416 | 5713 
8417 | 5690 
8418 | 5675 
8419 | 5668 
8420 | 5696 
8421 | 5746 
8422 | 5830 
8423 | 5931 
8424 | 6000 
8425 | 6059 
8426 | 6115 
8427 | 6155 
8428 | 6187 
8429 | 6210 
8430 | 6241 
8431 | 6252 
8432 | 6240 
8433 | 6219 
8434 | 6160 
8435 | 6115 
8436 | 6068 
8437 | 6035 
8438 | 6030 
8439 | 6049 
8440 | 6099 
8441 | 6128 
8442 | 6117 
8443 | 6120 
8444 | 6119 
8445 | 6120 
8446 | 6130 
8447 | 6126 
8448 | 6128 
8449 | 6105 
8450 | 6117 
8451 | 6128 
8452 | 6129 
8453 | 6154 
8454 | 6196 
8455 | 6247 
8456 | 6305 
8457 | 6345 
8458 | 6372 
8459 | 6386 
8460 | 6412 
8461 | 6478 
8462 | 6495 
8463 | 6482 
8464 | 6455 
8465 | 6403 
8466 | 6350 
8467 | 6270 
8468 | 6213 
8469 | 6167 
8470 | 6132 
8471 | 6148 
8472 | 6196 
8473 | 6260 
8474 | 6316 
8475 | 6371 
8476 | 6440 
8477 | 6489 
8478 | 6495 
8479 | 6474 
8480 | 6444 
8481 | 6443 
8482 | 6420 
8483 | 6395 
8484 | 6368 
8485 | 6321 
8486 | 6309 
8487 | 6339 
8488 | 6385 
8489 | 6424 
8490 | 6449 
8491 | 6467 
8492 | 6459 
8493 | 6450 
8494 | 6448 
8495 | 6426 
8496 | 6400 
8497 | 6341 
8498 | 6288 
8499 | 6291 
8500 | 6315 
8501 | 6358 
8502 | 6371 
8503 | 6373 
8504 | 6422 
8505 | 6466 
8506 | 6503 
8507 | 6519 
8508 | 6510 
8509 | 6513 
8510 | 6510 
8511 | 6526 
8512 | 6537 
8513 | 6518 
8514 | 6519 
8515 | 6512 
8516 | 6518 
8517 | 6519 
8518 | 6480 
8519 | 6461 
8520 | 6457 
8521 | 6483 
8522 | 6506 
8523 | 6476 
8524 | 6428 
8525 | 6382 
8526 | 6338 
8527 | 6299 
8528 | 6236 
8529 | 6177 
8530 | 6120 
8531 | 6080 
8532 | 6062 
8533 | 6043 
8534 | 6022 
8535 | 5990 
8536 | 5964 
8537 | 5994 
8538 | 6051 
8539 | 6081 
8540 | 6083 
8541 | 6026 
8542 | 5979 
8543 | 5953 
8544 | 6001 
8545 | 6054 
8546 | 6057 
8547 | 6011 
8548 | 5925 
8549 | 5867 
8550 | 5872 
8551 | 5889 
8552 | 5905 
8553 | 5901 
8554 | 5907 
8555 | 5927 
8556 | 5931 
8557 | 5939 
8558 | 5937 
8559 | 5934 
8560 | 5927 
8561 | 5902 
8562 | 5896 
8563 | 5873 
8564 | 5835 
8565 | 5813 
8566 | 5780 
8567 | 5746 
8568 | 5712 
8569 | 5663 
8570 | 5641 
8571 | 5670 
8572 | 5761 
8573 | 5850 
8574 | 5884 
8575 | 5898 
8576 | 5877 
8577 | 5884 
8578 | 5915 
8579 | 5913 
8580 | 5907 
8581 | 5869 
8582 | 5846 
8583 | 5826 
8584 | 5794 
8585 | 5773 
8586 | 5750 
8587 | 5740 
8588 | 5747 
8589 | 5768 
8590 | 5822 
8591 | 5873 
8592 | 5910 
8593 | 5937 
8594 | 5938 
8595 | 5936 
8596 | 5922 
8597 | 5899 
8598 | 5892 
8599 | 5861 
8600 | 5849 
8601 | 5838 
8602 | 5832 
8603 | 5844 
8604 | 5854 
8605 | 5880 
8606 | 5901 
8607 | 5919 
8608 | 5959 
8609 | 5996 
8610 | 6062 
8611 | 6137 
8612 | 6157 
8613 | 6158 
8614 | 6134 
8615 | 6086 
8616 | 6035 
8617 | 5971 
8618 | 5912 
8619 | 5849 
8620 | 5813 
8621 | 5819 
8622 | 5839 
8623 | 5884 
8624 | 5931 
8625 | 5960 
8626 | 5946 
8627 | 5919 
8628 | 5894 
8629 | 5863 
8630 | 5839 
8631 | 5847 
8632 | 5859 
8633 | 5895 
8634 | 5927 
8635 | 5940 
8636 | 5966 
8637 | 5979 
8638 | 5994 
8639 | 5997 
8640 | 5984 
8641 | 5986 
8642 | 5996 
8643 | 6013 
8644 | 6037 
8645 | 6040 
8646 | 6024 
8647 | 5991 
8648 | 5977 
8649 | 5976 
8650 | 5959 
8651 | 5956 
8652 | 5945 
8653 | 5924 
8654 | 5925 
8655 | 5937 
8656 | 5957 
8657 | 5975 
8658 | 5987 
8659 | 5996 
8660 | 5987 
8661 | 5967 
8662 | 5952 
8663 | 5928 
8664 | 5913 
8665 | 5885 
8666 | 5863 
8667 | 5853 
8668 | 5866 
8669 | 5908 
8670 | 5955 
8671 | 6015 
8672 | 6090 
8673 | 6137 
8674 | 6174 
8675 | 6203 
8676 | 6255 
8677 | 6309 
8678 | 6320 
8679 | 6283 
8680 | 6234 
8681 | 6192 
8682 | 6152 
8683 | 6109 
8684 | 6081 
8685 | 6053 
8686 | 6015 
8687 | 6020 
8688 | 6059 
8689 | 6110 
8690 | 6143 
8691 | 6172 
8692 | 6226 
8693 | 6263 
8694 | 6274 
8695 | 6268 
8696 | 6245 
8697 | 6233 
8698 | 6182 
8699 | 6127 
8700 | 6081 
8701 | 6042 
8702 | 6024 
8703 | 6017 
8704 | 6042 
8705 | 6110 
8706 | 6192 
8707 | 6286 
8708 | 6357 
8709 | 6401 
8710 | 6437 
8711 | 6451 
8712 | 6447 
8713 | 6386 
8714 | 6326 
8715 | 6307 
8716 | 6303 
8717 | 6305 
8718 | 6288 
8719 | 6256 
8720 | 6230 
8721 | 6227 
8722 | 6226 
8723 | 6212 
8724 | 6165 
8725 | 6132 
8726 | 6114 
8727 | 6126 
8728 | 6133 
8729 | 6112 
8730 | 6097 
8731 | 6085 
8732 | 6102 
8733 | 6138 
8734 | 6165 
8735 | 6190 
8736 | 6186 
8737 | 6229 
8738 | 6295 
8739 | 6352 
8740 | 6437 
8741 | 6473 
8742 | 6474 
8743 | 6482 
8744 | 6494 
8745 | 6496 
8746 | 6464 
8747 | 6417 
8748 | 6400 
8749 | 6369 
8750 | 6359 
8751 | 6331 
8752 | 6289 
8753 | 6285 
8754 | 6299 
8755 | 6349 
8756 | 6402 
8757 | 6443 
8758 | 6484 
8759 | 6504 
8760 | 6508 
8761 | 6488 
8762 | 6461 
8763 | 6418 
8764 | 6367 
8765 | 6362 
8766 | 6386 
8767 | 6403 
8768 | 6429 
8769 | 6430 
8770 | 6422 
8771 | 6424 
8772 | 6425 
8773 | 6455 
8774 | 6489 
8775 | 6504 
8776 | 6525 
8777 | 6557 
8778 | 6612 
8779 | 6635 
8780 | 6643 
8781 | 6662 
8782 | 6676 
8783 | 6701 
8784 | 6705 
8785 | 6691 
8786 | 6661 
8787 | 6637 
8788 | 6651 
8789 | 6686 
8790 | 6705 
8791 | 6720 
8792 | 6728 
8793 | 6756 
8794 | 6791 
8795 | 6779 
8796 | 6762 
8797 | 6720 
8798 | 6678 
8799 | 6655 
8800 | 6645 
8801 | 6676 
8802 | 6711 
8803 | 6764 
8804 | 6830 
8805 | 6894 
8806 | 7004 
8807 | 7101 
8808 | 7156 
8809 | 7195 
8810 | 7188 
8811 | 7164 
8812 | 7117 
8813 | 7049 
8814 | 6986 
8815 | 6910 
8816 | 6852 
8817 | 6803 
8818 | 6755 
8819 | 6739 
8820 | 6728 
8821 | 6791 
8822 | 6849 
8823 | 6890 
8824 | 6936 
8825 | 6933 
8826 | 6929 
8827 | 6920 
8828 | 6892 
8829 | 6875 
8830 | 6844 
8831 | 6799 
8832 | 6791 
8833 | 6771 
8834 | 6800 
8835 | 6845 
8836 | 6887 
8837 | 6897 
8838 | 6883 
8839 | 6902 
8840 | 6963 
8841 | 7049 
8842 | 7135 
8843 | 7154 
8844 | 7163 
8845 | 7171 
8846 | 7159 
8847 | 7137 
8848 | 7097 
8849 | 7078 
8850 | 7090 
8851 | 7114 
8852 | 7174 
8853 | 7202 
8854 | 7234 
8855 | 7262 
8856 | 7262 
8857 | 7268 
8858 | 7260 
8859 | 7261 
8860 | 7265 
8861 | 7271 
8862 | 7282 
8863 | 7264 
8864 | 7239 
8865 | 7224 
8866 | 7216 
8867 | 7224 
8868 | 7234 
8869 | 7229 
8870 | 7252 
8871 | 7268 
8872 | 7296 
8873 | 7310 
8874 | 7338 
8875 | 7361 
8876 | 7326 
8877 | 7296 
8878 | 7271 
8879 | 7229 
8880 | 7196 
8881 | 7156 
8882 | 7155 
8883 | 7187 
8884 | 7216 
8885 | 7233 
8886 | 7225 
8887 | 7201 
8888 | 7171 
8889 | 7116 
8890 | 7085 
8891 | 7080 
8892 | 7090 
8893 | 7103 
8894 | 7096 
8895 | 7097 
8896 | 7055 
8897 | 7021 
8898 | 7013 
8899 | 7009 
8900 | 7021 
8901 | 7012 
8902 | 6983 
8903 | 6952 
8904 | 6935 
8905 | 6978 
8906 | 7030 
8907 | 7069 
8908 | 7104 
8909 | 7119 
8910 | 7149 
8911 | 7156 
8912 | 7145 
8913 | 7144 
8914 | 7115 
8915 | 7079 
8916 | 7045 
8917 | 7022 
8918 | 7010 
8919 | 6984 
8920 | 6985 
8921 | 7007 
8922 | 7022 
8923 | 7049 
8924 | 7065 
8925 | 7079 
8926 | 7080 
8927 | 7077 
8928 | 7080 
8929 | 7062 
8930 | 7038 
8931 | 7026 
8932 | 6992 
8933 | 6981 
8934 | 6966 
8935 | 6970 
8936 | 7005 
8937 | 7041 
8938 | 7100 
8939 | 7164 
8940 | 7194 
8941 | 7214 
8942 | 7201 
8943 | 7178 
8944 | 7142 
8945 | 7085 
8946 | 7027 
8947 | 6952 
8948 | 6907 
8949 | 6882 
8950 | 6875 
8951 | 6912 
8952 | 6961 
8953 | 7025 
8954 | 7103 
8955 | 7158 
8956 | 7220 
8957 | 7272 
8958 | 7309 
8959 | 7349 
8960 | 7383 
8961 | 7453 
8962 | 7517 
8963 | 7584 
8964 | 7667 
8965 | 7744 
8966 | 7836 
8967 | 7941 
8968 | 8059 
8969 | 8177 
8970 | 8295 
8971 | 8461 
8972 | 8644 
8973 | 8797 
8974 | 8946 
8975 | 9013 
8976 | 9065 
8977 | 9084 
8978 | 9086 
8979 | 9098 
8980 | 9054 
8981 | 8978 
8982 | 8887 
8983 | 8767 
8984 | 8637 
8985 | 8438 
8986 | 8221 
8987 | 8023 
8988 | 7854 
8989 | 7732 
8990 | 7605 
8991 | 7493 
8992 | 7398 
8993 | 7316 
8994 | 7261 
8995 | 7199 
8996 | 7109 
8997 | 7049 
8998 | 6999 
8999 | 6981 
9000 | 6977 
9001 | 6978 
9002 | 6986 
9003 | 6976 
9004 | 6993 
9005 | 7030 
9006 | 7064 
9007 | 7098 
9008 | 7094 
9009 | 7113 
9010 | 7146 
9011 | 7172 
9012 | 7179 
9013 | 7164 
9014 | 7184 
9015 | 7222 
9016 | 7241 
9017 | 7263 
9018 | 7271 
9019 | 7258 
9020 | 7217 
9021 | 7154 
9022 | 7123 
9023 | 7101 
9024 | 7114 
9025 | 7172 
9026 | 7219 
9027 | 7277 
9028 | 7278 
9029 | 7242 
9030 | 7198 
9031 | 7159 
9032 | 7164 
9033 | 7185 
9034 | 7211 
9035 | 7241 
9036 | 7231 
9037 | 7242 
9038 | 7265 
9039 | 7292 
9040 | 7336 
9041 | 7355 
9042 | 7392 
9043 | 7418 
9044 | 7424 
9045 | 7416 
9046 | 7377 
9047 | 7355 
9048 | 7356 
9049 | 7351 
9050 | 7372 
9051 | 7366 
9052 | 7364 
9053 | 7363 
9054 | 7349 
9055 | 7350 
9056 | 7347 
9057 | 7341 
9058 | 7347 
9059 | 7355 
9060 | 7398 
9061 | 7410 
9062 | 7375 
9063 | 7321 
9064 | 7251 
9065 | 7204 
9066 | 7153 
9067 | 7092 
9068 | 7030 
9069 | 6979 
9070 | 6972 
9071 | 7021 
9072 | 7102 
9073 | 7212 
9074 | 7272 
9075 | 7307 
9076 | 7329 
9077 | 7324 
9078 | 7340 
9079 | 7360 
9080 | 7353 
9081 | 7303 
9082 | 7235 
9083 | 7192 
9084 | 7169 
9085 | 7179 
9086 | 7211 
9087 | 7248 
9088 | 7315 
9089 | 7368 
9090 | 7401 
9091 | 7440 
9092 | 7473 
9093 | 7506 
9094 | 7531 
9095 | 7517 
9096 | 7485 
9097 | 7445 
9098 | 7428 
9099 | 7405 
9100 | 7370 
9101 | 7365 
9102 | 7356 
9103 | 7349 
9104 | 7364 
9105 | 7382 
9106 | 7425 
9107 | 7446 
9108 | 7462 
9109 | 7466 
9110 | 7443 
9111 | 7418 
9112 | 7383 
9113 | 7342 
9114 | 7322 
9115 | 7295 
9116 | 7289 
9117 | 7275 
9118 | 7253 
9119 | 7226 
9120 | 7177 
9121 | 7180 
9122 | 7183 
9123 | 7212 
9124 | 7270 
9125 | 7317 
9126 | 7383 
9127 | 7467 
9128 | 7537 
9129 | 7563 
9130 | 7523 
9131 | 7452 
9132 | 7366 
9133 | 7244 
9134 | 7156 
9135 | 7094 
9136 | 7098 
9137 | 7133 
9138 | 7197 
9139 | 7274 
9140 | 7293 
9141 | 7281 
9142 | 7298 
9143 | 7321 
9144 | 7354 
9145 | 7384 
9146 | 7408 
9147 | 7440 
9148 | 7450 
9149 | 7474 
9150 | 7481 
9151 | 7463 
9152 | 7426 
9153 | 7370 
9154 | 7374 
9155 | 7407 
9156 | 7459 
9157 | 7505 
9158 | 7548 
9159 | 7597 
9160 | 7621 
9161 | 7635 
9162 | 7634 
9163 | 7599 
9164 | 7563 
9165 | 7531 
9166 | 7503 
9167 | 7517 
9168 | 7531 
9169 | 7549 
9170 | 7557 
9171 | 7564 
9172 | 7611 
9173 | 7636 
9174 | 7667 
9175 | 7705 
9176 | 7726 
9177 | 7760 
9178 | 7776 
9179 | 7776 
9180 | 7765 
9181 | 7734 
9182 | 7727 
9183 | 7736 
9184 | 7727 
9185 | 7729 
9186 | 7713 
9187 | 7740 
9188 | 7771 
9189 | 7822 
9190 | 7905 
9191 | 7936 
9192 | 7939 
9193 | 7926 
9194 | 7924 
9195 | 7920 
9196 | 7874 
9197 | 7844 
9198 | 7816 
9199 | 7787 
9200 | 7780 
9201 | 7766 
9202 | 7754 
9203 | 7749 
9204 | 7743 
9205 | 7771 
9206 | 7814 
9207 | 7870 
9208 | 7901 
9209 | 7911 
9210 | 7927 
9211 | 7917 
9212 | 7879 
9213 | 7819 
9214 | 7755 
9215 | 7723 
9216 | 7688 
9217 | 7696 
9218 | 7755 
9219 | 7811 
9220 | 7868 
9221 | 7923 
9222 | 7973 
9223 | 8035 
9224 | 8042 
9225 | 8024 
9226 | 7987 
9227 | 7947 
9228 | 7933 
9229 | 7875 
9230 | 7817 
9231 | 7754 
9232 | 7701 
9233 | 7660 
9234 | 7633 
9235 | 7627 
9236 | 7619 
9237 | 7613 
9238 | 7643 
9239 | 7683 
9240 | 7734 
9241 | 7762 
9242 | 7752 
9243 | 7727 
9244 | 7678 
9245 | 7626 
9246 | 7583 
9247 | 7534 
9248 | 7526 
9249 | 7515 
9250 | 7514 
9251 | 7528 
9252 | 7547 
9253 | 7589 
9254 | 7631 
9255 | 7667 
9256 | 7709 
9257 | 7724 
9258 | 7727 
9259 | 7695 
9260 | 7630 
9261 | 7598 
9262 | 7558 
9263 | 7513 
9264 | 7439 
9265 | 7351 
9266 | 7312 
9267 | 7266 
9268 | 7238 
9269 | 7223 
9270 | 7236 
9271 | 7273 
9272 | 7309 
9273 | 7343 
9274 | 7375 
9275 | 7400 
9276 | 7452 
9277 | 7472 
9278 | 7473 
9279 | 7442 
9280 | 7360 
9281 | 7307 
9282 | 7276 
9283 | 7265 
9284 | 7296 
9285 | 7308 
9286 | 7325 
9287 | 7343 
9288 | 7381 
9289 | 7452 
9290 | 7511 
9291 | 7543 
9292 | 7548 
9293 | 7522 
9294 | 7496 
9295 | 7431 
9296 | 7365 
9297 | 7305 
9298 | 7237 
9299 | 7194 
9300 | 7167 
9301 | 7148 
9302 | 7149 
9303 | 7170 
9304 | 7242 
9305 | 7313 
9306 | 7366 
9307 | 7405 
9308 | 7421 
9309 | 7459 
9310 | 7472 
9311 | 7462 
9312 | 7425 
9313 | 7345 
9314 | 7293 
9315 | 7266 
9316 | 7265 
9317 | 7282 
9318 | 7292 
9319 | 7308 
9320 | 7327 
9321 | 7348 
